#Acq. time (s)=	0.5
#Accumulations=	2
#Range (cm-¹)=	1500...4500
#Windows=	9
#Autofocus=	Off
#AutoExposure=	Off
#Spike filter=	Multiple accum.
#Delay time (s)=	0
#Binning=	1
#Readout mode=	Signal
#DeNoise=	Off
#ICS correction=	Off
#Dark correction=	Off
#Inst. Process=	Off
#Instrument=	LabRAM HR Evol
#Detector=	Emulator CCD
#Objective=	x100
#Grating=	1800 gr/mm
#ND Filter=	100%
#Laser (nm)=	512 
#Slit=	150.001
#Hole=	70.0087
#Project=	A
#Sample=	B
#Site=	C
#Title=	D_1
#Remark=	
#Date=	23.10.2017 15:48
#Acquired=	23.10.2017 15:48:11
1500.39	351
1500.89	341.004
1501.39	354.009
1501.88	342.013
1502.38	349.018
1502.88	334.022
1503.38	345.027
1503.87	384.031
1504.37	417.036
1504.87	355.04
1505.37	369.044
1505.86	375.049
1506.36	383.053
1506.86	344.058
1507.35	368.062
1507.85	408.067
1508.35	333.071
1508.84	401.076
1509.34	402.08
1509.84	363.084
1510.33	353.089
1510.83	411.093
1511.33	381.098
1511.82	418.102
1512.32	354.107
1512.82	348.111
1513.31	347.116
1513.81	357.12
1514.31	362.124
1514.8	349.129
1515.3	336.133
1515.8	338.138
1516.29	391.142
1516.79	369.147
1517.28	355.151
1517.78	378.156
1518.28	358.16
1518.77	414.164
1519.27	392.169
1519.76	359.173
1520.26	394.178
1520.76	351.182
1521.25	423.187
1521.75	346.191
1522.24	338.196
1522.74	382.2
1523.23	381.204
1523.73	362.209
1524.23	383.213
1524.72	398.218
1525.22	383.222
1525.71	389.227
1526.21	337.231
1526.7	340.236
1527.2	388.24
1527.69	364.244
1528.19	338.249
1528.68	343.253
1529.18	337.258
1529.68	354.262
1530.17	386.267
1530.66	356.271
1531.16	381.276
1531.65	374.28
1532.15	397.284
1532.65	342.289
1533.14	352.293
1533.63	362.298
1534.13	358.302
1534.62	400.307
1535.12	405.311
1535.61	347.316
1536.11	417.32
1536.6	392.324
1537.1	356.329
1537.59	353.333
1538.09	358.338
1538.58	338.342
1539.08	357.347
1539.57	403.351
1540.07	423.356
1540.56	352.36
1541.05	346.365
1541.55	362.369
1542.04	361.373
1542.54	415.378
1543.03	386.382
1543.52	353.387
1544.02	360.391
1544.51	359.396
1545.01	341.4
1545.5	356.405
1545.99	410.409
1546.49	361.413
1546.98	357.418
1547.48	417.422
1547.97	372.427
1548.46	340.431
1548.96	412.436
1549.45	357.44
1549.94	353.445
1550.44	401.449
1550.93	383.453
1551.42	350.458
1551.92	397.462
1552.41	343.467
1552.91	369.471
1553.4	374.476
1553.89	386.48
1554.38	386.484
1554.88	415.489
1555.37	399.493
1555.86	344.498
1556.36	390.502
1556.85	367.507
1557.34	363.511
1557.84	405.516
1558.33	351.52
1558.82	385.525
1559.31	354.529
1559.81	417.533
1560.3	348.538
1560.79	356.542
1561.29	343.547
1561.78	347.551
1562.27	396.556
1562.76	365.56
1563.26	346.565
1563.75	345.569
1564.24	359.573
1564.73	407.578
1565.23	416.582
1565.72	395.587
1566.21	361.591
1566.7	360.596
1567.2	409.6
1567.69	345.605
1568.18	357.609
1568.67	351.613
1569.16	361.618
1569.66	349.622
1570.15	391.627
1570.64	388.631
1571.13	344.636
1571.62	390.64
1572.12	398.645
1572.61	426.649
1573.1	375.653
1573.59	361.658
1574.08	359.662
1574.58	360.667
1575.07	347.671
1575.56	408.676
1576.05	374.68
1576.54	381.685
1577.03	418.689
1577.52	376.693
1578.02	361.698
1578.51	347.702
1579	375.707
1579.49	381.711
1579.98	420.716
1580.47	369.72
1580.96	347.725
1581.45	365.729
1581.94	397.733
1582.44	375.738
1582.93	375.742
1583.42	366.747
1583.91	369.751
1584.4	365.756
1584.89	375.76
1585.38	365.765
1585.87	356.769
1586.36	355.773
1586.85	446.778
1587.35	367.782
1587.84	408.787
1588.33	412.791
1588.82	406.796
1589.31	440.8
1589.8	358.805
1590.29	396.809
1590.78	381.813
1591.27	391.818
1591.76	381.822
1592.25	390.827
1592.74	348.831
1593.23	393.836
1593.72	417.84
1594.21	349.845
1594.7	426.849
1595.19	429.853
1595.68	371.858
1596.17	402.862
1596.66	419.867
1597.15	377.871
1597.64	426.876
1598.13	355.88
1598.62	351.885
1599.11	416.889
1599.6	365.893
1600.09	398.898
1600.58	378.902
1601.07	419.907
1601.56	379.911
1602.05	382.916
1602.54	359.92
1603.03	362.925
1603.52	398.929
1604	403.934
1604.49	440.938
1604.98	356.942
1605.47	406.947
1605.96	381.951
1606.45	379.956
1606.94	406.96
1607.43	394.965
1607.92	386.969
1608.41	382.973
1608.9	358.978
1609.39	362.982
1609.88	421.987
1610.36	358.991
1610.85	355.996
1611.34	355
1611.83	388.005
1612.32	360.009
1612.81	399.013
1613.3	374.018
1613.79	377.022
1614.27	367.027
1614.76	377.031
1615.25	418.036
1615.74	362.04
1616.23	388.045
1616.72	361.049
1617.2	424.053
1617.69	388.058
1618.18	419.062
1618.67	363.067
1619.16	413.071
1619.64	378.076
1620.13	363.08
1620.62	393.085
1621.11	400.089
1621.6	398.094
1622.09	410.098
1622.57	408.102
1623.06	364.107
1623.55	410.111
1624.04	386.116
1624.52	381.12
1625.01	370.125
1625.5	392.129
1625.99	373.133
1626.48	429.138
1626.96	384.142
1627.45	358.147
1627.94	413.151
1628.42	382.156
1628.91	366.16
1629.4	378.165
1629.89	425.169
1630.37	440.174
1630.86	359.178
1631.35	365.182
1631.84	408.187
1632.32	390.191
1632.81	436.196
1633.3	388.2
1633.78	377.205
1634.27	406.209
1634.76	366.214
1635.25	445.218
1635.73	381.222
1636.22	360.227
1636.71	382.231
1637.19	423.236
1637.68	378.24
1638.17	376.245
1638.65	379.249
1639.14	361.254
1639.63	417.258
1640.11	432.262
1640.6	401.267
1641.09	368.271
1641.57	373.276
1642.06	366.28
1642.55	363.285
1643.03	422.289
1643.52	409.294
1644	382.298
1644.49	392.302
1644.98	409.307
1645.46	361.311
1645.95	406.316
1646.44	374.32
1646.92	364.325
1647.41	394.329
1647.89	376.334
1648.38	420.338
1648.87	364.342
1649.35	381.347
1649.84	421.351
1650.32	398.356
1650.81	369.36
1651.29	397.365
1651.78	414.369
1652.26	416.374
1652.75	430.378
1653.24	388.382
1653.72	363.387
1654.21	413.391
1654.69	404.396
1655.18	430.4
1655.66	415.405
1656.15	385.409
1656.63	373.414
1657.12	406.418
1657.6	402.422
1658.09	425.427
1658.57	408.431
1659.06	400.436
1659.54	398.44
1660.03	370.445
1660.51	365.449
1661	394.454
1661.48	412.458
1661.97	393.462
1662.45	379.467
1662.94	389.471
1663.42	394.476
1663.91	397.48
1664.39	385.485
1664.88	398.489
1665.36	381.494
1665.85	391.498
1666.33	407.502
1666.82	388.507
1667.3	379.511
1667.78	454.516
1668.27	409.52
1668.75	417.525
1669.24	402.529
1669.72	372.534
1670.21	452.538
1670.69	368.542
1671.17	371.547
1671.66	421.551
1672.14	408.556
1672.63	439.56
1673.11	418.565
1673.59	400.569
1674.08	392.574
1674.56	393.578
1675.05	412.582
1675.53	384.587
1676.01	423.591
1676.5	373.596
1676.98	387.6
1677.46	385.605
1677.95	426.609
1678.43	439.614
1678.92	392.618
1679.4	394.622
1679.88	433.627
1680.36	381.631
1680.85	418.636
1681.33	416.64
1681.81	382.645
1682.3	381.649
1682.78	389.654
1683.26	392.658
1683.75	397.662
1684.23	423.667
1684.71	398.671
1685.2	439.676
1685.68	388.68
1686.16	382.685
1686.65	406.689
1687.13	384.694
1687.61	439.698
1688.09	375.702
1688.58	384.707
1689.06	400.711
1689.54	434.716
1690.03	380.72
1690.51	407.725
1690.99	405.729
1691.47	376.734
1691.95	421.738
1692.44	414.742
1692.92	423.747
1693.4	426.751
1693.88	376.756
1694.37	455.76
1694.85	434.765
1695.33	404.769
1695.81	442.774
1696.3	383.778
1696.78	447.783
1697.26	390.787
1697.74	393.791
1698.22	453.796
1698.71	386.8
1699.19	382.805
1699.67	394.809
1700.15	412.814
1700.63	401.818
1701.12	443.823
1701.6	433.827
1702.08	406.831
1702.56	416.836
1703.04	380.84
1703.52	385.845
1704	451.849
1704.49	389.854
1704.97	401.858
1705.45	409.863
1705.93	378.867
1706.41	402.871
1706.89	399.876
1707.38	381.88
1707.86	393.885
1708.34	418.889
1708.82	398.894
1709.3	389.898
1709.78	396.903
1710.26	381.907
1710.74	396.911
1711.22	466.916
1711.7	409.92
1712.19	400.925
1712.67	413.929
1713.15	393.934
1713.63	419.938
1714.11	392.943
1714.59	390.947
1715.07	415.951
1715.55	418.956
1716.03	394.96
1716.51	406.965
1716.99	409.969
1717.47	390.974
1717.95	385.978
1718.43	425.983
1718.91	405.987
1719.39	424.991
1719.87	391.996
1720.36	395
1720.84	429.005
1721.32	427.009
1721.8	448.014
1722.28	407.018
1722.76	396.023
1723.24	443.027
1723.72	400.031
1724.2	439.036
1724.68	391.04
1725.16	449.045
1725.64	400.049
1726.12	397.054
1726.6	409.058
1727.08	465.063
1727.55	414.067
1728.03	404.071
1728.51	391.076
1728.99	407.08
1729.47	444.085
1729.95	454.089
1730.43	482.094
1730.91	428.098
1731.39	395.103
1731.87	445.107
1732.35	397.111
1732.83	402.116
1733.31	404.12
1733.79	439.125
1734.27	395.129
1734.74	388.134
1735.22	457.138
1735.7	390.143
1736.18	398.147
1736.66	470.151
1737.14	444.156
1737.62	458.16
1738.1	408.165
1738.58	425.169
1739.06	421.174
1739.54	435.178
1740.01	443.183
1740.49	411.187
1740.97	391.191
1741.45	405.196
1741.93	405.2
1742.41	452.205
1742.89	443.209
1743.36	404.214
1743.84	460.218
1744.32	436.223
1744.8	433.227
1745.28	396.231
1745.75	429.236
1746.23	462.24
1746.71	422.245
1747.19	438.249
1747.67	429.254
1748.15	393.258
1748.63	455.263
1749.1	403.267
1749.58	415.271
1750.06	439.276
1750.54	402.28
1751.01	452.285
1751.49	407.289
1751.97	424.294
1752.45	426.298
1752.92	398.303
1753.4	433.307
1753.88	406.311
1754.36	477.316
1754.84	432.32
1755.31	460.325
1755.79	429.329
1756.27	457.334
1756.75	485.338
1757.22	424.343
1757.7	464.347
1758.18	436.351
1758.65	415.356
1759.13	448.36
1759.61	413.365
1760.09	399.369
1760.56	400.374
1761.04	435.378
1761.52	435.383
1761.99	408.387
1762.47	406.391
1762.95	417.396
1763.43	419.4
1763.9	461.405
1764.38	472.409
1764.86	427.414
1765.33	412.418
1765.81	407.423
1766.29	434.427
1766.76	411.431
1767.24	471.436
1767.72	452.44
1768.19	442.445
1768.67	479.449
1769.15	440.454
1769.62	413.458
1770.1	497.463
1770.57	404.467
1771.05	424.471
1771.53	432.476
1772	420.48
1772.48	457.485
1772.96	437.489
1773.43	423.494
1773.91	436.498
1774.38	447.503
1774.86	405.507
1775.34	429.512
1775.81	407.516
1776.29	435.52
1776.76	404.525
1777.24	418.529
1777.71	471.534
1778.19	414.538
1778.67	455.543
1779.14	406.547
1779.62	411.551
1780.09	479.556
1780.57	444.56
1781.04	430.565
1781.52	444.569
1782	413.574
1782.47	469.578
1782.94	481.583
1783.42	425.587
1783.9	450.591
1784.37	444.596
1784.85	491.6
1785.32	448.605
1785.8	491.609
1786.27	469.614
1786.75	451.618
1787.22	426.623
1787.7	457.627
1788.17	478.632
1788.65	415.636
1789.12	474.64
1789.6	495.645
1790.07	412.649
1790.55	486.654
1791.02	498.658
1791.49	409.663
1791.97	493.667
1792.45	437.672
1792.92	498.676
1793.39	428.68
1793.87	431.685
1794.34	468.689
1794.82	410.694
1795.29	458.698
1795.77	421.703
1796.24	438.707
1796.71	436.712
1797.19	449.716
1797.66	455.72
1798.14	455.725
1798.61	421.729
1799.08	430.734
1799.56	416.738
1800.03	436.743
1800.51	448.747
1800.98	420.752
1801.45	433.756
1801.93	421.76
1802.4	478.765
1802.88	461.769
1803.35	430.774
1803.82	421.778
1804.3	431.783
1804.77	436.787
1805.24	420.792
1805.72	445.796
1806.19	446.8
1806.67	457.805
1807.14	463.809
1807.61	458.814
1808.09	449.818
1808.56	499.823
1809.03	426.827
1809.5	420.832
1809.98	417.836
1810.45	443.84
1810.92	417.845
1811.4	449.849
1811.87	438.854
1812.34	472.858
1812.82	455.863
1813.29	419.867
1813.76	437.872
1814.24	427.876
1814.71	470.88
1815.18	482.885
1815.65	443.889
1816.13	430.894
1816.6	476.898
1817.07	453.903
1817.55	422.907
1818.02	421.912
1818.49	486.916
1818.96	440.92
1819.44	463.925
1819.91	453.929
1820.38	442.934
1820.85	499.938
1821.33	455.943
1821.8	465.947
1822.27	430.952
1822.74	472.956
1823.21	469.96
1823.69	437.965
1824.16	452.969
1824.63	441.974
1825.1	449.978
1825.57	450.983
1826.05	478.987
1826.52	438.992
1826.99	438.996
1827.46	454
1827.93	490.005
1828.41	438.009
1828.88	452.014
1829.35	440.018
1829.82	468.023
1830.29	445.027
1830.76	441.032
1831.23	465.036
1831.71	514.04
1832.18	445.045
1832.65	489.049
1833.12	455.054
1833.59	445.058
1834.06	439.063
1834.53	491.067
1835.01	465.072
1835.48	477.076
1835.95	511.08
1836.42	443.085
1836.89	505.089
1837.36	470.094
1837.83	450.098
1838.3	503.103
1838.77	460.107
1839.25	432.112
1839.72	463.116
1840.19	448.12
1840.66	438.125
1841.13	488.129
1841.6	501.134
1842.07	477.138
1842.54	460.143
1843.01	441.147
1843.48	466.152
1843.95	452.156
1844.42	492.16
1844.89	518.165
1845.36	475.169
1845.84	456.174
1846.3	498.178
1846.78	466.183
1847.25	440.187
1847.72	454.192
1848.19	443.196
1848.66	461.2
1849.13	479.205
1849.6	506.209
1850.07	468.214
1850.54	458.218
1851.01	491.223
1851.48	456.227
1851.95	504.232
1852.42	467.236
1852.89	453.241
1853.36	445.245
1853.83	505.249
1854.3	454.254
1854.76	457.258
1855.24	479.263
1855.7	451.267
1856.17	507.272
1856.64	484.276
1857.11	498.281
1857.58	459.285
1858.05	536.289
1858.52	455.294
1858.99	463.298
1859.46	444.303
1859.93	504.307
1860.4	496.312
1860.87	493.316
1861.34	485.321
1861.81	515.325
1862.28	492.329
1862.74	442.334
1863.21	530.338
1863.68	487.343
1864.15	443.347
1864.62	463.352
1865.09	493.356
1865.56	443.361
1866.03	496.365
1866.5	455.369
1866.96	457.374
1867.43	501.378
1867.9	491.383
1868.37	468.387
1868.84	458.392
1869.31	465.396
1869.78	444.401
1870.24	453.405
1870.71	497.409
1871.18	467.414
1871.65	467.418
1872.12	447.423
1872.59	471.427
1873.05	500.432
1873.52	526.436
1873.99	450.441
1874.46	536.445
1874.93	494.449
1875.4	463.454
1875.86	494.458
1876.33	483.463
1876.8	450.467
1877.27	482.472
1877.73	521.476
1878.2	466.481
1878.67	458.485
1879.14	456.489
1879.61	476.494
1880.07	483.498
1880.54	468.503
1881.01	478.507
1881.48	472.512
1881.94	458.516
1882.41	472.521
1882.88	513.525
1883.35	473.529
1883.82	497.534
1884.28	485.538
1884.75	497.543
1885.22	506.547
1885.68	505.552
1886.15	462.556
1886.62	474.561
1887.09	468.565
1887.55	463.569
1888.02	453.574
1888.49	540.578
1888.95	497.583
1889.42	458.587
1889.89	457.592
1890.35	516.596
1890.82	498.601
1891.29	463.605
1891.76	462.609
1892.22	473.614
1892.69	465.618
1893.16	531.623
1893.62	475.627
1894.09	497.632
1894.55	536.636
1895.02	459.641
1895.49	555.645
1895.95	483.649
1896.42	477.654
1896.89	494.658
1897.35	481.663
1897.82	487.667
1898.29	463.672
1898.75	472.676
1899.22	520.681
1899.68	463.685
1900.15	486.689
1900.62	495.694
1901.08	510.698
1901.55	504.703
1902.01	466.707
1902.48	505.712
1902.95	462.716
1903.41	509.721
1903.88	483.725
1904.34	476.729
1904.81	521.734
1905.28	497.738
1905.74	521.743
1906.21	471.747
1906.67	495.752
1907.14	487.756
1907.6	478.761
1908.07	480.765
1908.54	479.769
1909	480.774
1909.47	494.778
1909.93	490.783
1910.4	503.787
1910.86	520.792
1911.33	491.796
1911.79	541.801
1912.26	477.805
1912.72	467.809
1913.19	533.814
1913.65	491.818
1914.12	496.823
1914.58	474.827
1915.05	485.832
1915.51	487.836
1915.98	504.841
1916.44	471.845
1916.91	501.849
1917.37	523.854
1917.84	512.858
1918.3	494.863
1918.77	508.867
1919.23	500.872
1919.69	481.876
1920.16	474.881
1920.62	514.885
1921.09	520.89
1921.55	508.894
1922.02	482.898
1922.48	526.903
1922.94	531.907
1923.41	480.912
1923.87	557.916
1924.34	476.921
1924.8	503.925
1925.27	495.93
1925.73	475.934
1926.2	558.938
1926.66	529.943
1927.12	482.947
1927.59	535.952
1928.05	475.956
1928.51	491.961
1928.98	509.965
1929.44	506.97
1929.91	527.974
1930.37	538.978
1930.83	562.983
1931.3	526.987
1931.76	537.992
1932.22	514.996
1932.69	495.001
1933.15	507.005
1933.61	528.01
1934.08	536.014
1934.54	524.018
1935	539.023
1935.47	482.027
1935.93	520.032
1936.39	531.036
1936.86	532.041
1937.32	500.045
1937.78	488.049
1938.25	516.054
1938.71	511.058
1939.17	503.063
1939.64	494.067
1940.1	518.072
1940.56	507.076
1941.02	508.081
1941.49	510.085
1941.95	493.09
1942.41	528.094
1942.88	555.858
1943.34	537.729
1943.8	543.911
1944.27	570.721
1944.73	521.737
1945.19	503.52
1945.65	514.924
1946.11	527.324
1946.58	561.663
1947.04	524.682
1947.5	510.961
1947.96	544.789
1948.43	491.904
1948.89	531.538
1949.35	508.362
1949.81	529.554
1950.28	502.356
1950.74	522.035
1951.2	535.702
1951.66	504.678
1952.12	521.61
1952.59	521.221
1953.05	536.102
1953.51	513.043
1953.97	508.824
1954.43	525.217
1954.89	532.604
1955.36	497.564
1955.82	530.9
1956.28	524.354
1956.74	519.671
1957.2	509.322
1957.66	530.177
1958.13	549.624
1958.59	520.59
1959.05	508.587
1959.51	501.219
1959.97	531.579
1960.43	510.108
1960.89	537.292
1961.36	536.105
1961.82	550.271
1962.28	534.881
1962.74	533.239
1963.2	534.325
1963.66	522.307
1964.12	516.154
1964.58	517.617
1965.04	529.055
1965.51	548.467
1965.97	545.363
1966.43	524.485
1966.89	513.537
1967.35	556.793
1967.81	552.512
1968.27	574.519
1968.73	540.049
1969.19	521.987
1969.65	539.131
1970.11	536.392
1970.57	528.01
1971.04	526.453
1971.49	551.588
1971.96	542.483
1972.42	530.904
1972.88	524.962
1973.34	533.173
1973.8	531.981
1974.26	566.321
1974.72	576.249
1975.18	544.726
1975.64	544.865
1976.1	537.426
1976.56	524.941
1977.02	522.851
1977.48	558.967
1977.94	579.643
1978.4	574.435
1978.86	562.948
1979.32	565.676
1979.78	563.386
1980.24	529.937
1980.7	543.563
1981.16	552.078
1981.62	547.741
1982.08	534.337
1982.54	526.992
1983	534.87
1983.46	548.858
1983.91	530.968
1984.37	536.026
1984.83	565.254
1985.29	556.973
1985.75	555.874
1986.21	546.588
1986.67	579.574
1987.13	572.335
1987.59	533.755
1988.05	564.912
1988.51	560.743
1988.86	539.144
1989.33	540.146
1989.79	514.148
1990.26	524.149
1990.72	525.151
1991.19	521.153
1991.65	520.154
1992.12	562.156
1992.58	548.157
1993.05	531.159
1993.51	529.161
1993.98	599.162
1994.44	529.164
1994.91	537.165
1995.37	542.167
1995.83	535.169
1996.3	522.17
1996.76	555.172
1997.23	556.173
1997.69	564.175
1998.16	552.177
1998.62	560.178
1999.08	592.18
1999.55	601.181
2000.01	527.183
2000.48	530.185
2000.94	550.186
2001.4	530.188
2001.87	531.189
2002.33	578.191
2002.79	551.193
2003.26	555.194
2003.72	554.196
2004.19	533.197
2004.65	565.199
2005.11	542.201
2005.58	547.202
2006.04	530.204
2006.5	595.205
2006.97	552.207
2007.43	527.209
2007.89	535.21
2008.36	615.212
2008.82	607.214
2009.28	548.215
2009.75	572.217
2010.21	537.218
2010.67	564.22
2011.14	532.221
2011.6	542.223
2012.06	591.225
2012.53	603.226
2012.99	567.228
2013.45	580.229
2013.92	565.231
2014.38	603.233
2014.84	533.234
2015.3	601.236
2015.77	583.238
2016.23	536.239
2016.69	555.241
2017.15	536.242
2017.62	576.244
2018.08	598.246
2018.54	593.247
2019.01	612.249
2019.47	551.25
2019.93	563.252
2020.39	607.254
2020.86	584.255
2021.32	568.257
2021.78	573.258
2022.24	596.26
2022.7	594.262
2023.17	548.263
2023.63	575.265
2024.09	577.266
2024.55	549.268
2025.01	568.27
2025.48	558.271
2025.94	557.273
2026.4	572.274
2026.86	569.276
2027.32	586.278
2027.79	574.279
2028.25	558.281
2028.71	610.282
2029.17	586.284
2029.63	586.286
2030.1	566.287
2030.56	553.289
2031.02	587.29
2031.48	543.292
2031.94	595.294
2032.4	564.295
2032.87	555.297
2033.33	581.298
2033.79	563.3
2034.25	548.302
2034.71	572.303
2035.17	556.305
2035.63	605.306
2036.09	573.308
2036.56	640.31
2037.02	551.311
2037.48	585.313
2037.94	575.314
2038.4	557.316
2038.86	598.318
2039.32	556.319
2039.78	555.321
2040.24	618.323
2040.71	590.324
2041.17	617.326
2041.63	587.327
2042.09	567.329
2042.55	567.331
2043.01	551.332
2043.47	562.334
2043.93	551.335
2044.39	601.337
2044.85	558.339
2045.31	554.34
2045.77	575.342
2046.23	584.343
2046.69	562.345
2047.15	635.347
2047.61	627.348
2048.07	612.35
2048.53	624.351
2049	593.353
2049.45	589.355
2049.92	572.356
2050.38	627.358
2050.83	594.359
2051.3	564.361
2051.76	589.363
2052.22	582.364
2052.68	609.366
2053.14	580.367
2053.6	559.369
2054.05	562.371
2054.52	574.372
2054.97	570.374
2055.43	606.375
2055.89	646.377
2056.35	566.379
2056.81	566.38
2057.27	579.382
2057.73	565.383
2058.19	618.385
2058.65	642.387
2059.11	606.388
2059.57	650.39
2060.03	576.392
2060.49	568.393
2060.95	616.395
2061.41	635.396
2061.87	568.398
2062.33	616.4
2062.78	591.401
2063.25	644.403
2063.7	584.404
2064.16	603.406
2064.62	604.408
2065.08	577.409
2065.54	576.411
2066	595.412
2066.46	578.414
2066.92	580.416
2067.37	591.417
2067.83	601.419
2068.29	574.42
2068.75	621.422
2069.21	589.424
2069.67	581.425
2070.13	611.427
2070.59	587.428
2071.04	575.43
2071.5	590.432
2071.96	652.433
2072.42	617.435
2072.88	583.436
2073.34	606.438
2073.79	608.44
2074.25	631.441
2074.71	592.443
2075.17	627.444
2075.63	613.446
2076.09	628.448
2076.55	591.449
2077	601.451
2077.46	580.452
2077.92	588.454
2078.38	619.456
2078.83	621.457
2079.29	625.459
2079.75	622.46
2080.21	610.462
2080.67	606.464
2081.12	657.465
2081.58	584.467
2082.04	597.469
2082.5	642.47
2082.95	648.472
2083.41	620.473
2083.87	587.475
2084.33	680.477
2084.78	613.478
2085.24	591.48
2085.7	598.481
2086.16	587.483
2086.61	649.484
2087.07	596.486
2087.53	587.488
2087.99	588.489
2088.44	611.491
2088.9	611.493
2089.36	593.494
2089.81	674.496
2090.27	613.497
2090.73	652.499
2091.19	588.501
2091.64	619.502
2092.1	635.504
2092.56	643.505
2093.01	602.507
2093.47	626.509
2093.93	625.51
2094.38	664.512
2094.84	624.513
2095.3	622.515
2095.75	623.517
2096.21	662.518
2096.67	601.52
2097.12	593.521
2097.58	600.523
2098.04	606.525
2098.49	619.526
2098.95	634.528
2099.41	664.529
2099.86	605.531
2100.32	633.533
2100.77	636.534
2101.23	609.536
2101.69	599.537
2102.14	614.539
2102.6	651.541
2103.06	598.542
2103.51	622.544
2103.97	630.546
2104.42	622.547
2104.88	620.549
2105.34	650.55
2105.79	610.552
2106.25	616.554
2106.7	629.555
2107.16	620.557
2107.61	615.558
2108.07	611.56
2108.52	632.562
2108.98	680.563
2109.44	607.565
2109.89	642.566
2110.35	647.568
2110.8	661.57
2111.26	611.571
2111.71	656.573
2112.17	644.574
2112.63	611.576
2113.08	607.578
2113.53	658.579
2113.99	607.581
2114.45	637.582
2114.9	633.584
2115.36	638.586
2115.81	683.587
2116.27	619.589
2116.72	641.59
2117.18	640.592
2117.63	642.594
2118.09	645.595
2118.54	613.597
2119	625.598
2119.45	661.6
2119.91	661.602
2120.36	612.603
2120.81	641.605
2121.27	629.606
2121.72	658.608
2122.18	621.61
2122.63	663.611
2123.09	637.613
2123.54	615.614
2124	654.616
2124.45	655.618
2124.91	692.619
2125.36	656.621
2125.81	631.622
2126.27	662.624
2126.72	647.626
2127.18	644.627
2127.63	633.629
2128.09	638.63
2128.54	629.632
2128.99	657.634
2129.45	635.635
2129.9	703.637
2130.36	654.638
2130.81	661.64
2131.26	639.642
2131.72	658.643
2132.17	631.645
2132.62	642.647
2133.08	671.648
2133.53	697.65
2133.99	718.651
2134.44	649.653
2134.89	677.655
2135.35	630.656
2135.8	640.658
2136.25	641.659
2136.71	685.661
2137.16	690.663
2137.61	682.664
2138.07	650.666
2138.52	639.667
2138.97	627.669
2139.43	701.671
2139.88	635.672
2140.33	632.674
2140.79	690.675
2141.24	670.677
2141.69	644.679
2142.15	696.68
2142.6	669.682
2143.05	713.683
2143.5	674.685
2143.96	688.687
2144.41	689.688
2144.86	669.69
2145.32	647.692
2145.77	669.693
2146.22	640.695
2146.67	689.696
2147.13	648.698
2147.58	645.7
2148.03	661.701
2148.49	635.703
2148.94	663.704
2149.39	639.706
2149.84	653.708
2150.3	664.709
2150.75	656.711
2151.2	658.712
2151.65	655.714
2152.1	641.716
2152.56	690.717
2153.01	649.719
2153.46	683.72
2153.91	648.722
2154.37	648.724
2154.82	671.725
2155.27	664.727
2155.72	669.728
2156.17	723.73
2156.63	669.732
2157.08	652.733
2157.53	659.735
2157.98	653.736
2158.43	664.738
2158.88	651.74
2159.34	673.741
2159.79	725.743
2160.24	674.744
2160.69	691.746
2161.14	660.748
2161.59	684.749
2162.05	697.751
2162.5	648.752
2162.95	659.754
2163.4	681.756
2163.85	677.757
2164.3	681.759
2164.75	672.76
2165.21	687.762
2165.66	680.764
2166.11	710.765
2166.56	679.767
2167.01	718.768
2167.46	666.77
2167.91	679.772
2168.36	670.773
2168.81	679.775
2169.26	742.776
2169.72	664.778
2170.17	693.78
2170.62	728.781
2171.07	662.783
2171.52	693.785
2171.97	695.786
2172.42	701.788
2172.87	718.789
2173.32	686.791
2173.77	672.792
2174.22	717.794
2174.67	674.796
2175.12	660.797
2175.58	719.799
2176.03	734.801
2176.48	728.802
2176.93	681.804
2177.38	679.805
2177.83	673.807
2178.28	711.809
2178.73	689.81
2179.18	728.812
2179.63	705.813
2180.08	719.815
2180.53	746.817
2180.98	755.818
2181.43	719.82
2181.88	685.821
2182.33	716.823
2182.78	669.825
2183.23	737.826
2183.68	671.828
2184.13	705.829
2184.58	733.831
2185.03	670.833
2185.48	707.834
2185.93	684.836
2186.38	680.837
2186.82	693.839
2187.27	699.841
2187.72	715.842
2188.17	754.844
2188.62	671.845
2189.07	683.847
2189.52	730.849
2189.97	726.85
2190.42	675.852
2190.87	706.853
2191.32	704.855
2191.77	715.857
2192.22	750.858
2192.67	701.86
2193.11	721.861
2193.56	682.863
2194.01	694.865
2194.46	683.866
2194.91	698.868
2195.36	738.87
2195.81	678.871
2196.26	706.873
2196.71	708.874
2197.16	703.876
2197.61	680.878
2198.05	691.879
2198.5	693.881
2198.95	718.882
2199.4	693.884
2199.85	683.886
2200.3	717.887
2200.75	723.889
2201.19	720.89
2201.64	771.892
2202.09	710.894
2202.54	715.895
2202.99	687.897
2203.44	723.898
2203.88	719.9
2204.33	689.902
2204.78	746.903
2205.23	723.905
2205.68	687.906
2206.13	748.908
2206.57	694.91
2207.02	728.911
2207.47	736.913
2207.92	705.914
2208.37	718.916
2208.81	721.918
2209.26	763.919
2209.71	710.921
2210.16	691.922
2210.6	701.924
2211.05	757.926
2211.5	727.927
2211.95	714.929
2212.4	725.93
2212.84	775.932
2213.29	724.934
2213.74	708.935
2214.18	740.937
2214.63	765.939
2215.08	786.94
2215.53	771.942
2215.97	745.943
2216.42	741.945
2216.87	728.946
2217.32	763.948
2217.76	750.95
2218.21	710.951
2218.66	768.953
2219.1	715.955
2219.55	740.956
2220	716.958
2220.45	708.959
2220.89	714.961
2221.34	751.963
2221.79	747.964
2222.23	735.966
2222.68	766.967
2223.13	760.969
2223.57	732.971
2224.02	713.972
2224.47	721.974
2224.91	724.975
2225.36	756.977
2225.81	725.979
2226.25	772.98
2226.7	778.982
2227.15	737.983
2227.59	707.985
2228.04	793.987
2228.49	712.988
2228.93	719.99
2229.38	777.991
2229.82	757.993
2230.27	719.995
2230.72	727.996
2231.16	760.998
2231.61	742.999
2232.06	746.001
2232.5	739.003
2232.95	762.004
2233.39	753.006
2233.84	723.007
2234.29	738.009
2234.73	773.011
2235.18	745.012
2235.62	744.014
2236.07	809.015
2236.51	774.017
2236.96	761.019
2237.41	798.02
2237.85	724.022
2238.3	727.023
2238.74	772.025
2239.19	720.027
2239.63	761.028
2240.08	801.03
2240.52	766.032
2240.97	739.033
2241.41	796.035
2241.86	756.036
2242.31	767.038
2242.75	745.039
2243.2	816.041
2243.64	759.043
2244.09	791.044
2244.53	778.046
2244.98	729.048
2245.42	727.049
2245.87	771.051
2246.31	767.052
2246.76	788.054
2247.2	755.056
2247.65	731.057
2248.09	734.059
2248.54	739.06
2248.98	771.062
2249.43	755.064
2249.87	743.065
2250.32	732.067
2250.76	750.068
2251.21	764.07
2251.65	732.072
2252.09	750.073
2252.54	768.075
2252.98	760.076
2253.43	780.078
2253.87	773.08
2254.32	744.081
2254.76	752.083
2255.2	809.084
2255.65	744.086
2256.09	740.088
2256.54	752.089
2256.98	750.091
2257.43	747.093
2257.87	739.094
2258.31	761.096
2258.76	771.097
2259.2	790.099
2259.65	772.101
2260.09	798.102
2260.53	832.104
2260.98	744.105
2261.42	758.107
2261.86	771.109
2262.31	749.11
2262.75	781.112
2263.2	745.113
2263.64	748.115
2264.08	810.117
2264.53	754.118
2264.97	798.12
2265.41	776.121
2265.86	828.123
2266.3	812.125
2266.74	776.126
2267.19	758.128
2267.63	751.129
2268.07	750.131
2268.52	756.133
2268.96	795.134
2269.4	804.136
2269.85	774.137
2270.29	764.139
2270.73	776.141
2271.18	814.142
2271.62	751.144
2272.06	777.145
2272.5	790.147
2272.95	790.149
2273.39	792.15
2273.83	774.152
2274.28	757.153
2274.72	759.155
2275.16	778.157
2275.61	779.158
2276.05	774.16
2276.49	789.161
2276.93	819.163
2277.38	822.165
2277.82	807.166
2278.26	793.168
2278.7	820.169
2279.14	803.171
2279.59	810.173
2280.03	785.174
2280.47	799.176
2280.91	788.177
2281.36	845.179
2281.8	802.181
2282.24	773.182
2282.68	842.184
2283.13	804.186
2283.57	821.187
2284.01	781.189
2284.45	788.19
2284.89	783.192
2285.34	815.194
2285.78	818.195
2286.22	784.197
2286.66	772.198
2287.1	827.2
2287.54	811.202
2287.99	796.203
2288.43	783.205
2288.87	772.206
2289.31	836.208
2289.75	798.21
2290.2	814.211
2290.64	841.213
2291.08	827.214
2291.52	792.216
2291.96	782.218
2292.4	782.219
2292.84	798.221
2293.28	801.222
2293.73	821.224
2294.17	780.226
2294.61	793.227
2295.05	873.229
2295.49	793.23
2295.93	846.232
2296.37	867.234
2296.81	800.235
2297.26	784.237
2297.7	857.238
2298.14	832.24
2298.58	788.242
2299.02	824.243
2299.46	804.245
2299.9	788.247
2300.34	819.248
2300.78	826.25
2301.22	796.251
2301.66	805.253
2302.1	804.255
2302.55	816.256
2302.99	829.258
2303.43	860.259
2303.87	862.261
2304.31	811.263
2304.75	801.264
2305.19	788.266
2305.63	786.267
2306.07	789.269
2306.51	804.271
2306.95	803.272
2307.39	856.274
2307.83	792.275
2308.27	832.277
2308.71	840.279
2309.15	796.28
2309.59	813.282
2310.03	797.283
2310.47	845.285
2310.91	844.287
2311.35	812.288
2311.79	824.29
2312.23	823.291
2312.67	796.293
2313.11	857.295
2313.55	843.296
2313.99	843.298
2314.43	810.299
2314.87	817.301
2315.31	842.303
2315.75	825.304
2316.19	815.306
2316.63	853.307
2317.06	831.309
2317.5	859.311
2317.94	807.312
2318.38	881.314
2318.82	851.315
2319.26	840.317
2319.7	834.319
2320.14	810.32
2320.58	811.322
2321.02	840.323
2321.46	835.325
2321.9	853.327
2322.34	871.328
2322.78	856.33
2323.21	835.331
2323.65	820.333
2324.09	805.335
2324.53	865.336
2324.97	832.338
2325.41	815.34
2325.85	821.341
2326.29	837.343
2326.72	842.344
2327.16	881.346
2327.6	859.348
2328.04	882.349
2328.48	817.351
2328.92	825.352
2329.36	823.354
2329.8	815.356
2330.23	848.357
2330.67	866.359
2331.11	875.36
2331.55	838.362
2331.99	818.364
2332.43	850.365
2332.86	849.367
2333.3	871.368
2333.74	816.37
2334.18	836.372
2334.62	847.373
2335.05	892.375
2335.49	865.376
2335.93	841.378
2336.37	863.38
2336.81	847.381
2337.25	855.383
2337.68	819.384
2338.12	860.386
2338.56	838.388
2339	852.389
2339.43	820.391
2339.87	840.392
2340.31	886.394
2340.75	862.396
2341.18	854.397
2341.62	842.399
2342.06	880.401
2342.5	825.402
2342.93	841.404
2343.37	880.405
2343.81	864.407
2344.25	872.409
2344.68	830.41
2345.12	872.412
2345.56	883.413
2346	889.415
2346.43	911.417
2346.87	852.418
2347.31	860.42
2347.74	838.421
2348.18	900.423
2348.62	890.425
2349.05	832.426
2349.49	838.428
2349.93	841.429
2350.37	855.431
2350.8	835.433
2351.24	911.434
2351.68	877.436
2352.11	852.437
2352.55	852.439
2352.99	863.441
2353.42	855.442
2353.86	837.444
2354.3	852.445
2354.73	892.447
2355.17	854.449
2355.61	873.45
2356.04	884.452
2356.48	853.453
2356.91	871.455
2357.35	864.457
2357.79	900.458
2358.23	873.46
2358.66	859.564
2359.1	876.389
2359.53	892.55
2359.97	857.207
2360.4	886.804
2360.84	891.141
2361.28	843.334
2361.71	844.939
2362.15	927.045
2362.59	860.805
2363.02	851.422
2363.46	848.879
2363.89	877.193
2364.33	866.488
2364.76	910.881
2365.2	884.013
2365.64	860.118
2366.07	887.723
2366.51	871.403
2366.94	918.093
2367.38	864.91
2367.81	888.611
2368.25	858.605
2368.68	864.264
2369.12	914.796
2369.56	863.057
2369.99	864.368
2370.43	879.491
2370.86	867.889
2371.3	862.334
2371.73	893.818
2372.17	909.444
2372.6	887.057
2373.04	892.896
2373.47	902.643
2373.91	881.092
2374.34	909.519
2374.78	906.408
2375.21	872.595
2375.65	893.706
2376.08	910.219
2376.52	915.44
2376.95	911.482
2377.39	884.886
2377.82	902.723
2378.26	889.622
2378.69	886.741
2379.12	931.055
2379.56	886.494
2380	889.064
2380.43	904.239
2380.86	909.064
2381.3	931.497
2381.73	878.58
2382.17	896.934
2382.6	879.36
2383.04	910.794
2383.47	910.631
2383.91	886.94
2384.34	893.987
2384.77	913.052
2385.21	911.062
2385.64	901.163
2386.07	911.824
2386.51	894.296
2386.94	924.61
2387.38	890.473
2387.81	892.84
2388.25	889.823
2388.68	900.952
2389.11	877.595
2389.55	928.954
2389.98	909.22
2390.41	904.355
2390.85	922.721
2391.28	913.488
2391.72	900.123
2392.15	913.023
2392.58	902.048
2393.02	917.821
2393.45	922.822
2393.88	889.367
2394.32	913.25
2394.75	898.125
2395.18	918.356
2395.62	913.104
2396.05	890.616
2396.48	908.55
2396.92	919.41
2397.35	937.755
2397.78	938.47
2398.22	927.242
2398.65	912.226
2399.08	901.082
2399.51	902.495
2399.95	911.594
2400.38	911.879
2400.81	922.139
2401.25	903.832
2401.68	889.635
2402.11	916.497
2402.55	934.902
2402.98	920.591
2403.41	903.133
2403.66	896.379
2404.1	884.384
2404.53	888.389
2404.97	926.394
2405.41	888.399
2405.85	941.404
2406.29	946.409
2406.73	977.414
2407.16	980.419
2407.6	921.424
2408.04	891.429
2408.48	917.434
2408.91	953.439
2409.35	961.444
2409.79	940.449
2410.23	972.454
2410.67	891.459
2411.1	898.464
2411.54	951.469
2411.98	929.474
2412.42	897.479
2412.86	918.484
2413.29	909.489
2413.73	902.494
2414.17	915.499
2414.6	918.504
2415.04	922.509
2415.48	925.514
2415.92	936.519
2416.35	933.524
2416.79	937.529
2417.23	934.534
2417.67	940.539
2418.1	905.544
2418.54	927.549
2418.98	914.554
2419.42	922.559
2419.85	955.564
2420.29	905.569
2420.73	986.574
2421.16	902.579
2421.6	943.584
2422.04	943.589
2422.47	915.594
2422.91	925.599
2423.35	923.604
2423.79	916.609
2424.22	911.614
2424.66	919.619
2425.09	922.624
2425.53	959.629
2425.97	921.634
2426.41	909.639
2426.84	926.644
2427.28	956.649
2427.71	910.654
2428.15	929.659
2428.59	926.664
2429.02	916.669
2429.46	999.674
2429.9	938.679
2430.33	982.684
2430.77	949.689
2431.2	939.694
2431.64	948.699
2432.08	922.704
2432.51	917.709
2432.95	956.714
2433.39	954.719
2433.82	977.724
2434.26	987.729
2434.69	967.734
2435.13	917.739
2435.57	917.744
2436	962.749
2436.44	956.754
2436.87	924.759
2437.31	987.764
2437.74	938.769
2438.18	1005.77
2438.62	938.779
2439.05	923.784
2439.49	930.789
2439.92	982.794
2440.36	948.799
2440.79	954.804
2441.23	924.809
2441.67	924.814
2442.1	926.819
2442.54	930.824
2442.97	969.829
2443.41	955.834
2443.84	1014.84
2444.28	939.844
2444.71	937.849
2445.15	937.854
2445.58	944.859
2446.02	966.864
2446.45	929.869
2446.89	981.874
2447.32	1013.88
2447.76	977.884
2448.19	965.889
2448.63	1023.89
2449.06	931.899
2449.5	949.904
2449.93	1020.91
2450.37	983.914
2450.8	973.919
2451.24	956.924
2451.67	970.929
2452.1	968.934
2452.54	964.939
2452.97	942.944
2453.41	1019.95
2453.84	973.954
2454.28	958.959
2454.71	937.964
2455.15	953.969
2455.58	961.974
2456.02	979.979
2456.45	967.984
2456.88	991.989
2457.32	956.994
2457.75	1007
2458.19	945.004
2458.62	952.009
2459.05	961.014
2459.49	942.019
2459.92	1007.02
2460.36	1031.03
2460.79	988.034
2461.22	970.039
2461.66	1001.04
2462.09	990.049
2462.53	1003.05
2462.96	966.059
2463.39	987.064
2463.83	982.069
2464.26	992.074
2464.7	988.079
2465.13	964.084
2465.56	953.089
2466	999.094
2466.43	959.099
2466.86	980.104
2467.3	989.109
2467.73	1006.11
2468.16	999.119
2468.6	1023.12
2469.03	976.129
2469.46	987.134
2469.9	960.139
2470.33	974.144
2470.76	1018.15
2471.2	1022.15
2471.63	963.159
2472.06	990.164
2472.5	1006.17
2472.93	959.174
2473.36	982.179
2473.79	978.184
2474.23	973.189
2474.66	1017.19
2475.09	963.199
2475.53	992.204
2475.96	975.209
2476.39	978.214
2476.83	965.219
2477.26	1002.22
2477.69	972.229
2478.12	996.234
2478.56	978.239
2478.99	970.244
2479.42	1006.25
2479.85	963.254
2480.29	962.259
2480.72	1001.26
2481.15	1039.27
2481.58	1001.27
2482.02	1012.28
2482.45	965.284
2482.88	968.289
2483.31	994.294
2483.75	969.299
2484.18	969.304
2484.61	989.309
2485.04	980.314
2485.47	999.319
2485.91	994.324
2486.34	1055.33
2486.77	1024.33
2487.2	1034.34
2487.63	978.344
2488.07	999.349
2488.5	1024.35
2488.93	978.359
2489.36	1006.36
2489.79	979.369
2490.22	972.374
2490.66	1017.38
2491.09	1033.38
2491.52	1005.39
2491.95	1025.39
2492.38	997.399
2492.81	991.404
2493.25	1001.41
2493.68	1056.41
2494.11	1054.42
2494.54	994.424
2494.97	1019.43
2495.4	980.434
2495.83	983.439
2496.26	997.444
2496.7	1012.45
2497.13	989.454
2497.56	1028.46
2497.99	1060.46
2498.42	983.469
2498.85	981.474
2499.28	993.479
2499.71	1012.48
2500.14	1028.49
2500.58	1064.49
2501.01	1006.5
2501.44	1040.5
2501.87	1050.51
2502.3	1063.51
2502.73	987.519
2503.16	1031.52
2503.59	1049.53
2504.02	1017.53
2504.45	1030.54
2504.88	1080.54
2505.31	1031.55
2505.75	1045.55
2506.18	1006.56
2506.61	1032.56
2507.04	994.569
2507.47	997.574
2507.9	1007.58
2508.33	1009.58
2508.76	1049.59
2509.19	1046.59
2509.62	991.599
2510.05	1004.6
2510.48	1053.61
2510.91	1013.61
2511.34	1004.62
2511.77	993.624
2512.2	1040.63
2512.63	1017.63
2513.06	999.639
2513.49	1073.64
2513.92	1070.65
2514.35	1014.65
2514.78	1051.66
2515.21	1026.66
2515.64	1036.67
2516.07	1014.67
2516.5	1009.68
2516.93	1028.68
2517.36	1013.69
2517.79	1063.69
2518.22	1056.7
2518.65	998.704
2519.08	1013.71
2519.51	1053.71
2519.94	1005.72
2520.36	1047.72
2520.79	1006.73
2521.22	1014.73
2521.65	1062.74
2522.08	1039.74
2522.51	1064.75
2522.94	1067.75
2523.37	1003.76
2523.8	1055.76
2524.23	1007.77
2524.66	1014.77
2525.09	1010.78
2525.52	1006.78
2525.94	1028.79
2526.37	1065.79
2526.8	1028.8
2527.23	1082.8
2527.66	1011.81
2528.09	1065.81
2528.52	1044.82
2528.95	1062.82
2529.38	1031.83
2529.81	1054.83
2530.23	1014.84
2530.66	1038.84
2531.09	1016.85
2531.52	1054.85
2531.95	1028.86
2532.38	1030.86
2532.8	1081.87
2533.23	1035.87
2533.66	1052.88
2534.09	1017.88
2534.52	1014.89
2534.95	1066.89
2535.37	1075.9
2535.8	1060.9
2536.23	1033.91
2536.66	1066.91
2537.09	1019.92
2537.52	1019.92
2537.94	1089.93
2538.37	1079.93
2538.8	1094.94
2539.23	1065.94
2539.66	1021.95
2540.08	1093.95
2540.51	1056.96
2540.94	1026.96
2541.37	1075.97
2541.8	1097.97
2542.22	1048.98
2542.65	1035.98
2543.08	1032.99
2543.51	1080.99
2543.93	1033
2544.36	1034
2544.79	1074.01
2545.22	1046.01
2545.64	1087.02
2546.07	1057.02
2546.5	1071.03
2546.93	1046.03
2547.35	1057.04
2547.78	1027.04
2548.21	1046.05
2548.64	1090.05
2549.06	1033.06
2549.49	1043.06
2549.92	1030.07
2550.35	1032.07
2550.77	1062.08
2551.2	1090.08
2551.63	1069.09
2552.05	1040.09
2552.48	1041.1
2552.91	1048.1
2553.33	1050.11
2553.76	1033.11
2554.19	1085.12
2554.61	1080.12
2555.04	1041.13
2555.47	1056.13
2555.89	1051.14
2556.32	1114.14
2556.75	1036.15
2557.18	1109.15
2557.6	1110.16
2558.03	1045.16
2558.46	1048.17
2558.88	1105.17
2559.31	1061.18
2559.73	1092.18
2560.16	1078.19
2560.59	1069.19
2561.01	1075.2
2561.44	1082.2
2561.87	1059.21
2562.29	1072.21
2562.72	1105.22
2563.15	1118.22
2563.57	1084.23
2564	1070.23
2564.42	1069.24
2564.85	1093.24
2565.27	1090.25
2565.7	1076.25
2566.13	1046.26
2566.55	1080.26
2566.98	1102.27
2567.41	1049.27
2567.83	1067.28
2568.26	1062.28
2568.68	1091.29
2569.11	1065.29
2569.53	1046.3
2569.96	1104.3
2570.38	1091.31
2570.81	1053.31
2571.24	1117.32
2571.66	1103.32
2572.09	1057.33
2572.51	1076.33
2572.94	1051.34
2573.36	1058.34
2573.79	1130.35
2574.21	1072.35
2574.64	1103.36
2575.07	1057.36
2575.49	1071.37
2575.91	1088.37
2576.34	1067.38
2576.77	1071.38
2577.19	1106.39
2577.61	1073.39
2578.04	1116.4
2578.47	1074.4
2578.89	1087.41
2579.32	1101.41
2579.74	1070.42
2580.17	1057.42
2580.59	1088.43
2581.02	1065.43
2581.44	1101.44
2581.86	1083.44
2582.29	1085.45
2582.71	1133.45
2583.14	1090.46
2583.56	1065.46
2583.99	1072.47
2584.41	1137.47
2584.84	1093.48
2585.26	1149.48
2585.69	1063.49
2586.11	1112.49
2586.53	1097.5
2586.96	1134.5
2587.38	1069.51
2587.81	1138.51
2588.23	1083.52
2588.66	1082.52
2589.08	1121.53
2589.5	1086.53
2589.93	1087.54
2590.35	1070.54
2590.78	1095.55
2591.2	1078.55
2591.63	1102.56
2592.05	1106.56
2592.47	1067.57
2592.9	1070.57
2593.32	1109.58
2593.74	1128.58
2594.17	1067.59
2594.59	1108.59
2595.02	1121.6
2595.44	1136.6
2595.86	1092.61
2596.29	1079.61
2596.71	1124.62
2597.13	1082.62
2597.56	1079.63
2597.98	1084.63
2598.4	1123.64
2598.83	1072.64
2599.25	1093.65
2599.67	1112.65
2600.1	1122.66
2600.52	1082.66
2600.94	1074.67
2601.37	1079.67
2601.79	1110.68
2602.21	1084.68
2602.64	1103.69
2603.06	1078.69
2603.48	1085.7
2603.91	1127.7
2604.33	1117.71
2604.75	1108.71
2605.18	1084.72
2605.6	1106.72
2606.02	1097.73
2606.44	1095.73
2606.87	1097.74
2607.29	1088.74
2607.71	1153.75
2608.14	1097.75
2608.56	1087.76
2608.98	1082.76
2609.4	1121.77
2609.83	1132.77
2610.25	1098.78
2610.67	1092.78
2611.09	1154.79
2611.52	1134.79
2611.94	1101.8
2612.36	1113.8
2612.78	1108.81
2613.21	1148.81
2613.63	1128.82
2614.05	1085.82
2614.47	1175.83
2614.9	1128.83
2615.32	1087.84
2615.74	1142.84
2616.16	1130.85
2616.58	1090.85
2617.01	1109.86
2617.43	1088.86
2617.85	1115.87
2618.27	1090.87
2618.69	1176.88
2619.12	1102.88
2619.54	1153.89
2619.96	1106.89
2620.38	1134.9
2620.8	1104.9
2621.22	1103.91
2621.65	1091.91
2622.07	1110.92
2622.49	1129.92
2622.91	1089.93
2623.33	1140.93
2623.76	1111.94
2624.18	1091.94
2624.6	1173.95
2625.02	1094.95
2625.44	1158.96
2625.86	1155.96
2626.28	1092.97
2626.71	1106.97
2627.13	1105.98
2627.55	1155.98
2627.97	1131.99
2628.39	1105.99
2628.81	1108
2629.23	1094
2629.65	1156.01
2630.07	1118.01
2630.49	1114.02
2630.92	1159.02
2631.34	1145.03
2631.76	1152.03
2632.18	1096.04
2632.6	1098.04
2633.02	1112.05
2633.44	1176.05
2633.86	1163.06
2634.28	1120.06
2634.7	1107.07
2635.12	1115.07
2635.54	1109.08
2635.96	1139.08
2636.39	1143.09
2636.81	1188.09
2637.23	1120.1
2637.65	1114.1
2638.07	1117.11
2638.49	1149.11
2638.91	1158.12
2639.33	1150.12
2639.75	1124.13
2640.17	1158.13
2640.59	1129.14
2641.01	1147.14
2641.43	1157.15
2641.85	1153.15
2642.27	1123.16
2642.69	1135.16
2643.11	1153.17
2643.53	1119.17
2643.95	1150.18
2644.37	1111.18
2644.79	1167.19
2645.21	1127.19
2645.63	1169.2
2646.05	1134.2
2646.47	1146.21
2646.89	1142.21
2647.31	1111.22
2647.73	1107.22
2648.15	1123.23
2648.57	1167.23
2648.99	1138.24
2649.41	1149.24
2649.83	1119.25
2650.25	1114.25
2650.67	1201.26
2651.09	1163.26
2651.51	1153.27
2651.92	1148.27
2652.34	1123.28
2652.76	1192.28
2653.18	1112.29
2653.6	1178.29
2654.02	1131.3
2654.44	1145.3
2654.86	1133.31
2655.28	1129.31
2655.7	1120.32
2656.12	1174.32
2656.53	1142.33
2656.95	1122.33
2657.37	1148.34
2657.79	1170.34
2658.21	1160.35
2658.63	1118.35
2659.05	1154.36
2659.47	1129.36
2659.89	1184.37
2660.31	1153.37
2660.72	1167.38
2661.14	1134.38
2661.56	1157.39
2661.98	1185.39
2662.4	1117.4
2662.82	1154.4
2663.24	1199.41
2663.65	1163.41
2664.07	1197.42
2664.49	1129.42
2664.91	1147.43
2665.33	1124.43
2665.75	1169.44
2666.17	1122.44
2666.58	1135.45
2667	1196.45
2667.42	1208.46
2667.84	1142.46
2668.25	1137.47
2668.67	1130.47
2669.09	1170.48
2669.51	1145.48
2669.93	1182.49
2670.35	1125.49
2670.76	1211.5
2671.18	1196.5
2671.6	1138.51
2672.02	1130.51
2672.44	1165.52
2672.85	1130.52
2673.27	1124.53
2673.69	1150.53
2674.11	1134.54
2674.52	1156.54
2674.94	1125.55
2675.36	1142.55
2675.78	1183.56
2676.19	1143.56
2676.61	1181.57
2677.03	1171.57
2677.45	1160.58
2677.86	1150.58
2678.28	1186.59
2678.7	1200.59
2679.12	1141.6
2679.53	1136.6
2679.95	1164.61
2680.37	1134.61
2680.79	1180.62
2681.2	1150.62
2681.62	1162.63
2682.04	1199.63
2682.45	1192.64
2682.87	1140.64
2683.29	1155.65
2683.7	1196.65
2684.12	1134.66
2684.54	1182.66
2684.95	1182.67
2685.37	1158.67
2685.79	1171.68
2686.2	1136.68
2686.62	1171.69
2687.04	1165.69
2687.45	1144.7
2687.87	1158.7
2688.29	1156.71
2688.71	1187.71
2689.12	1145.72
2689.54	1161.72
2689.95	1153.73
2690.37	1181.73
2690.79	1168.74
2691.2	1192.74
2691.62	1205.75
2692.04	1195.75
2692.45	1222.76
2692.87	1194.76
2693.28	1138.77
2693.7	1162.77
2694.12	1169.78
2694.53	1202.78
2694.95	1163.79
2695.36	1154.79
2695.78	1194.8
2696.2	1159.8
2696.61	1188.81
2697.03	1188.81
2697.45	1176.82
2697.86	1220.82
2698.28	1173.83
2698.69	1165.83
2699.11	1202.84
2699.52	1196.84
2699.94	1141.85
2700.36	1197.85
2700.77	1184.86
2701.19	1207.86
2701.6	1217.87
2702.02	1173.87
2702.43	1156.88
2702.85	1149.88
2703.26	1176.89
2703.68	1164.89
2704.1	1149.9
2704.51	1187.9
2704.93	1179.91
2705.34	1178.91
2705.76	1149.92
2706.17	1155.92
2706.59	1153.93
2707	1167.93
2707.42	1165.94
2707.83	1174.94
2708.25	1191.95
2708.66	1170.95
2709.08	1157.96
2709.49	1190.96
2709.91	1232.97
2710.32	1192.97
2710.74	1160.98
2711.15	1181.98
2711.57	1163.99
2711.98	1160.99
2712.4	1193
2712.81	1203
2713.23	1199.01
2713.64	1212.01
2714.05	1205.02
2714.47	1154.02
2714.88	1178.03
2715.3	1173.03
2715.71	1195.04
2716.13	1161.04
2716.54	1161.05
2716.96	1150.05
2717.37	1183.06
2717.79	1213.06
2718.2	1164.07
2718.61	1204.07
2719.03	1185.08
2719.44	1181.08
2719.86	1165.09
2720.27	1159.09
2720.68	1194.1
2721.1	1159.1
2721.51	1204.11
2721.93	1233.11
2722.34	1189.12
2722.75	1199.12
2723.17	1171.13
2723.58	1164.13
2724	1190.14
2724.41	1193.14
2724.82	1171.15
2725.24	1169.15
2725.65	1196.16
2726.06	1234.16
2726.48	1167.17
2726.89	1178.17
2727.31	1222.18
2727.72	1169.18
2728.13	1179.19
2728.55	1204.19
2728.96	1232.2
2729.37	1178.2
2729.79	1172.21
2730.2	1202.21
2730.61	1167.22
2731.03	1159.22
2731.44	1218.23
2731.85	1175.23
2732.27	1177.24
2732.68	1166.24
2733.09	1208.25
2733.5	1186.25
2733.92	1192.26
2734.33	1173.26
2734.74	1167.27
2735.16	1187.27
2735.57	1228.28
2735.98	1184.28
2736.4	1166.29
2736.81	1167.29
2737.22	1254.3
2737.64	1211.3
2738.05	1173.31
2738.46	1194.31
2738.87	1235.32
2739.29	1167.32
2739.7	1217.33
2740.11	1205.33
2740.52	1198.34
2740.94	1164.34
2741.35	1167.35
2741.76	1202.35
2742.17	1208.36
2742.59	1162.36
2743	1169.37
2743.41	1209.37
2743.82	1167.38
2744.24	1167.38
2744.65	1189.39
2745.06	1175.39
2745.47	1182.4
2745.88	1166.4
2746.3	1167.41
2746.71	1252.41
2747.12	1245.42
2747.53	1173.42
2747.95	1236.43
2748.36	1200.43
2748.77	1177.44
2749.18	1188.44
2749.59	1173.45
2750	1166.45
2750.42	1197.46
2750.83	1191.46
2751.24	1181.47
2751.65	1197.47
2752.06	1208.48
2752.47	1229.48
2752.89	1252.34
2753.3	1252.08
2753.71	1167.41
2754.12	1235.76
2754.53	1179.85
2754.94	1210.98
2755.35	1227.03
2755.77	1184.71
2756.18	1222.82
2756.59	1174.53
2757	1199.09
2757.41	1182.2
2757.82	1197.36
2758.24	1210.39
2758.65	1224.5
2759.06	1168.95
2759.47	1248.6
2759.88	1235.29
2760.29	1200.37
2760.7	1190.14
2761.11	1193.16
2761.52	1190.28
2761.93	1209.95
2762.34	1218.33
2762.76	1226.6
2763.17	1187.87
2763.58	1216.11
2763.99	1223.53
2764.4	1191.71
2764.81	1189.18
2765.22	1202.38
2765.63	1196.21
2766.04	1229.86
2766.45	1196.17
2766.86	1214.33
2767.27	1194.8
2767.68	1205.34
2768.09	1191.17
2768.5	1221.12
2768.91	1223.91
2769.33	1234.73
2769.74	1199.97
2770.15	1215.17
2770.56	1214.03
2770.97	1217.35
2771.38	1234.65
2771.79	1198.4
2772.2	1212.64
2772.61	1193.66
2773.02	1192.44
2773.43	1211.33
2773.84	1198.91
2774.25	1189.94
2774.66	1197.21
2775.07	1214.3
2775.48	1197.19
2775.89	1203.68
2776.3	1208.13
2776.71	1211.09
2777.12	1219.91
2777.53	1217.09
2777.93	1194.03
2778.34	1206.41
2778.75	1225.81
2779.16	1225.28
2779.57	1196.96
2779.98	1188.53
2780.39	1192.63
2780.8	1201.22
2781.21	1206.69
2781.62	1189.36
2782.03	1225.81
2782.44	1196.72
2782.85	1257.04
2783.26	1201.77
2783.67	1204.29
2784.08	1238.15
2784.49	1248.97
2784.9	1200.76
2785.3	1190.78
2785.71	1248.7
2786.12	1229.79
2786.53	1186.48
2786.94	1195.56
2787.35	1186.54
2787.76	1208.89
2788.17	1185.54
2788.58	1208.15
2788.99	1186.76
2789.39	1248.2
2789.8	1239.79
2790.21	1186.41
2790.62	1204.69
2791.03	1204.33
2791.44	1192.52
2791.85	1183.87
2792.25	1215
2792.66	1214.66
2793.07	1237.44
2793.48	1214.95
2793.59	1203.55
2794	1201.55
2794.42	1265.56
2794.83	1234.56
2795.24	1176.56
2795.66	1248.57
2796.07	1184.57
2796.49	1199.57
2796.9	1205.58
2797.31	1219.58
2797.73	1191.58
2798.14	1230.59
2798.55	1216.59
2798.97	1189.59
2799.38	1178.6
2799.79	1208.6
2800.21	1188.6
2800.62	1190.61
2801.03	1185.61
2801.45	1192.61
2801.86	1184.62
2802.28	1183.62
2802.69	1192.62
2803.1	1212.63
2803.51	1236.63
2803.93	1229.63
2804.34	1253.64
2804.75	1195.64
2805.17	1182.64
2805.58	1238.65
2805.99	1234.65
2806.41	1186.65
2806.82	1246.66
2807.23	1195.66
2807.64	1253.66
2808.06	1182.67
2808.47	1222.67
2808.88	1249.67
2809.3	1208.68
2809.71	1252.68
2810.12	1217.68
2810.53	1268.69
2810.95	1233.69
2811.36	1184.69
2811.77	1185.7
2812.18	1240.7
2812.6	1225.7
2813.01	1191.71
2813.42	1190.71
2813.83	1263.71
2814.25	1181.72
2814.66	1195.72
2815.07	1188.72
2815.48	1180.73
2815.9	1212.73
2816.31	1194.73
2816.72	1247.74
2817.13	1218.74
2817.55	1230.74
2817.96	1210.75
2818.37	1244.75
2818.78	1199.75
2819.19	1187.76
2819.6	1185.76
2820.02	1262.76
2820.43	1181.77
2820.84	1195.77
2821.25	1237.77
2821.67	1204.78
2822.08	1198.78
2822.49	1229.78
2822.9	1182.79
2823.31	1222.79
2823.72	1208.79
2824.13	1232.8
2824.55	1272.8
2824.96	1231.8
2825.37	1181.8
2825.78	1202.81
2826.19	1234.81
2826.6	1223.81
2827.02	1215.82
2827.43	1245.82
2827.84	1190.82
2828.25	1221.83
2828.66	1207.83
2829.07	1260.83
2829.48	1205.84
2829.9	1243.84
2830.31	1196.84
2830.72	1236.85
2831.13	1266.85
2831.54	1226.85
2831.95	1249.86
2832.36	1263.86
2832.77	1239.86
2833.18	1260.87
2833.59	1242.87
2834.01	1223.87
2834.42	1185.88
2834.83	1210.88
2835.24	1211.88
2835.65	1194.89
2836.06	1202.89
2836.47	1215.89
2836.88	1231.9
2837.29	1246.9
2837.7	1205.9
2838.11	1223.91
2838.52	1191.91
2838.93	1194.91
2839.34	1191.92
2839.76	1203.92
2840.17	1186.92
2840.58	1204.93
2840.99	1246.93
2841.4	1190.93
2841.81	1198.94
2842.22	1214.94
2842.63	1235.94
2843.04	1244.95
2843.45	1224.95
2843.86	1209.95
2844.27	1225.96
2844.68	1246.96
2845.09	1194.96
2845.5	1191.97
2845.91	1201.97
2846.32	1259.97
2846.73	1194.98
2847.14	1217.98
2847.55	1213.98
2847.96	1244.99
2848.37	1220.99
2848.78	1240.99
2849.19	1214
2849.6	1217
2850.01	1228
2850.42	1198.01
2850.83	1231.01
2851.24	1190.01
2851.65	1251.02
2852.06	1204.02
2852.47	1250.02
2852.88	1222.03
2853.28	1198.03
2853.69	1231.03
2854.1	1187.04
2854.51	1257.04
2854.92	1186.04
2855.33	1225.05
2855.74	1253.05
2856.15	1222.05
2856.56	1221.06
2856.97	1185.06
2857.38	1200.06
2857.79	1259.07
2858.2	1256.07
2858.6	1205.07
2859.01	1216.08
2859.42	1193.08
2859.83	1223.08
2860.24	1254.09
2860.65	1204.09
2861.06	1201.09
2861.47	1218.1
2861.88	1198.1
2862.29	1199.1
2862.69	1192.11
2863.1	1262.11
2863.51	1195.11
2863.92	1228.12
2864.33	1260.12
2864.74	1187.12
2865.15	1239.13
2865.55	1249.13
2865.96	1249.13
2866.37	1255.14
2866.78	1245.14
2867.19	1194.14
2867.6	1217.15
2868.01	1230.15
2868.41	1223.15
2868.82	1234.16
2869.23	1196.16
2869.64	1216.16
2870.05	1185.17
2870.45	1233.17
2870.86	1197.17
2871.27	1247.18
2871.68	1260.18
2872.09	1259.18
2872.5	1187.19
2872.9	1201.19
2873.31	1253.19
2873.72	1222.2
2874.13	1216.2
2874.53	1209.2
2874.94	1198.21
2875.35	1207.21
2875.76	1192.21
2876.17	1252.22
2876.57	1209.22
2876.98	1266.22
2877.39	1191.23
2877.8	1233.23
2878.21	1275.23
2878.61	1193.24
2879.02	1186.24
2879.43	1237.24
2879.83	1192.25
2880.24	1196.25
2880.65	1197.25
2881.06	1216.26
2881.46	1190.26
2881.87	1218.26
2882.28	1238.27
2882.69	1230.27
2883.09	1187.27
2883.5	1234.28
2883.91	1219.28
2884.31	1201.28
2884.72	1247.29
2885.13	1200.29
2885.54	1216.29
2885.94	1225.3
2886.35	1226.3
2886.76	1187.3
2887.16	1184.3
2887.57	1249.31
2887.98	1199.31
2888.39	1270.31
2888.79	1205.32
2889.2	1215.32
2889.61	1209.32
2890.01	1206.33
2890.42	1258.33
2890.82	1241.33
2891.23	1186.34
2891.64	1235.34
2892.04	1206.34
2892.45	1230.35
2892.86	1205.35
2893.26	1266.35
2893.67	1191.36
2894.08	1214.36
2894.48	1262.36
2894.89	1193.37
2895.3	1236.37
2895.7	1241.37
2896.11	1204.38
2896.51	1187.38
2896.92	1259.38
2897.33	1198.39
2897.73	1218.39
2898.14	1198.39
2898.55	1210.4
2898.95	1247.4
2899.36	1226.4
2899.76	1252.41
2900.17	1202.41
2900.58	1192.41
2900.98	1189.42
2901.39	1227.42
2901.79	1224.42
2902.2	1237.43
2902.6	1212.43
2903.01	1230.43
2903.42	1211.44
2903.82	1230.44
2904.23	1196.44
2904.63	1214.45
2905.04	1258.45
2905.44	1228.45
2905.85	1239.46
2906.26	1200.46
2906.66	1203.46
2907.07	1270.47
2907.47	1187.47
2907.88	1216.47
2908.28	1232.48
2908.69	1196.48
2909.09	1233.48
2909.5	1210.49
2909.9	1190.49
2910.31	1213.49
2910.71	1195.5
2911.12	1223.5
2911.52	1200.5
2911.93	1185.51
2912.33	1218.51
2912.74	1197.51
2913.14	1186.52
2913.55	1220.52
2913.95	1228.52
2914.36	1213.53
2914.76	1182.53
2915.17	1204.53
2915.57	1242.54
2915.98	1241.54
2916.38	1201.54
2916.79	1194.55
2917.19	1266.55
2917.6	1185.55
2918	1192.56
2918.41	1186.56
2918.81	1190.56
2919.21	1264.57
2919.62	1196.57
2920.02	1206.57
2920.43	1200.58
2920.83	1236.58
2921.24	1239.58
2921.64	1229.59
2922.05	1192.59
2922.45	1208.59
2922.85	1234.6
2923.26	1180.6
2923.66	1235.6
2924.07	1198.61
2924.47	1208.61
2924.87	1214.61
2925.28	1186.62
2925.68	1181.62
2926.09	1203.62
2926.49	1197.63
2926.9	1226.63
2927.3	1186.63
2927.7	1251.64
2928.11	1210.64
2928.51	1202.64
2928.91	1194.65
2929.32	1237.65
2929.72	1218.65
2930.13	1184.66
2930.53	1208.66
2930.93	1231.66
2931.34	1244.67
2931.74	1192.67
2932.14	1194.67
2932.55	1217.68
2932.95	1187.68
2933.35	1229.68
2933.76	1218.69
2934.16	1186.69
2934.56	1226.69
2934.97	1227.7
2935.37	1208.7
2935.77	1191.7
2936.18	1231.71
2936.58	1226.71
2936.98	1210.71
2937.39	1181.72
2937.79	1180.72
2938.19	1184.72
2938.6	1196.73
2939	1183.73
2939.4	1181.73
2939.81	1184.74
2940.21	1239.74
2940.61	1234.74
2941.01	1251.75
2941.42	1263.75
2941.82	1229.75
2942.22	1191.76
2942.62	1209.76
2943.03	1244.76
2943.43	1258.77
2943.83	1184.77
2944.23	1206.77
2944.64	1192.78
2945.04	1183.78
2945.44	1188.78
2945.85	1190.79
2946.25	1235.79
2946.65	1260.79
2947.05	1218.8
2947.46	1229.8
2947.86	1192.8
2948.26	1189.8
2948.66	1237.81
2949.06	1257.81
2949.47	1184.81
2949.87	1178.82
2950.27	1222.82
2950.67	1244.82
2951.07	1234.83
2951.48	1245.83
2951.88	1188.83
2952.28	1176.84
2952.68	1229.84
2953.08	1198.84
2953.49	1173.85
2953.89	1245.85
2954.29	1198.85
2954.69	1189.86
2955.09	1185.86
2955.5	1225.86
2955.9	1171.87
2956.3	1202.87
2956.7	1187.87
2957.1	1179.88
2957.51	1220.88
2957.91	1184.88
2958.31	1207.89
2958.71	1212.89
2959.11	1227.89
2959.51	1195.9
2959.91	1223.9
2960.31	1211.9
2960.72	1220.91
2961.12	1169.91
2961.52	1175.91
2961.92	1181.92
2962.32	1220.92
2962.72	1224.92
2963.13	1212.93
2963.53	1182.93
2963.93	1179.93
2964.33	1171.94
2964.73	1212.94
2965.13	1214.94
2965.53	1244.95
2965.93	1195.95
2966.33	1181.95
2966.73	1217.96
2967.14	1191.96
2967.54	1202.96
2967.94	1211.97
2968.34	1193.97
2968.74	1225.97
2969.14	1191.98
2969.54	1214.98
2969.94	1176.98
2970.34	1185.99
2970.74	1227.99
2971.14	1241.99
2971.54	1210
2971.94	1207
2972.34	1184
2972.74	1185.01
2973.14	1191.01
2973.54	1180.01
2973.95	1194.02
2974.35	1238.02
2974.75	1211.02
2975.15	1223.03
2975.55	1214.03
2975.95	1218.03
2976.35	1177.04
2976.75	1219.04
2977.15	1167.04
2977.55	1221.05
2977.95	1240.05
2978.35	1172.05
2978.75	1162.06
2979.15	1223.06
2979.55	1173.06
2979.95	1222.07
2980.35	1191.07
2980.75	1179.07
2981.15	1194.08
2981.55	1171.08
2981.95	1168.08
2982.35	1167.09
2982.75	1164.09
2983.15	1224.09
2983.55	1225.1
2983.94	1165.1
2984.35	1235.1
2984.75	1185.11
2985.14	1199.11
2985.54	1212.11
2985.94	1165.12
2986.34	1159.12
2986.74	1179.12
2987.14	1192.13
2987.54	1183.13
2987.94	1205.13
2988.34	1233.14
2988.74	1174.14
2989.14	1219.14
2989.54	1222.15
2989.94	1182.15
2990.33	1210.15
2990.73	1218.16
2991.13	1186.16
2991.53	1175.16
2991.93	1230.17
2992.33	1168.17
2992.73	1183.17
2993.13	1158.18
2993.53	1204.18
2993.93	1180.18
2994.32	1164.19
2994.72	1213.19
2995.12	1223.19
2995.52	1215.2
2995.92	1202.2
2996.32	1159.2
2996.72	1173.21
2997.12	1222.21
2997.52	1201.21
2997.91	1196.22
2998.31	1205.22
2998.71	1203.22
2999.11	1191.23
2999.51	1231.23
2999.91	1213.23
3000.3	1229.24
3000.7	1169.24
3001.1	1169.24
3001.5	1189.25
3001.9	1196.25
3002.3	1180.25
3002.69	1198.26
3003.09	1213.26
3003.49	1164.26
3003.89	1227.27
3004.29	1197.27
3004.69	1199.27
3005.08	1198.28
3005.48	1244.28
3005.88	1208.28
3006.28	1195.29
3006.67	1212.29
3007.07	1175.29
3007.47	1182.29
3007.87	1181.3
3008.27	1193.3
3008.66	1215.3
3009.06	1165.31
3009.46	1156.31
3009.86	1170.31
3010.25	1218.32
3010.65	1210.32
3011.05	1187.32
3011.45	1189.33
3011.84	1163.33
3012.24	1228.33
3012.64	1158.34
3013.04	1169.34
3013.43	1187.34
3013.83	1194.35
3014.23	1212.35
3014.63	1160.35
3015.02	1161.36
3015.42	1148.36
3015.82	1212.36
3016.21	1194.37
3016.61	1154.37
3017.01	1183.37
3017.41	1198.38
3017.8	1224.38
3018.2	1180.38
3018.6	1174.39
3018.99	1168.39
3019.39	1173.39
3019.79	1178.4
3020.19	1199.4
3020.58	1175.4
3020.98	1143.41
3021.38	1144.41
3021.77	1212.41
3022.17	1203.42
3022.57	1151.42
3022.96	1144.42
3023.36	1168.43
3023.76	1155.43
3024.15	1189.43
3024.55	1159.44
3024.94	1141.44
3025.34	1194.44
3025.74	1173.45
3026.14	1149.45
3026.53	1143.45
3026.93	1158.46
3027.32	1178.46
3027.72	1190.46
3028.12	1144.47
3028.51	1171.47
3028.91	1174.47
3029.31	1221.48
3029.7	1149.48
3030.1	1187.48
3030.49	1183.49
3030.89	1151.49
3031.29	1194.49
3031.68	1158.5
3032.08	1172.5
3032.47	1167.5
3032.87	1152.51
3033.27	1150.51
3033.66	1191.51
3034.06	1191.52
3034.45	1165.52
3034.85	1164.52
3035.25	1185.53
3035.64	1144.53
3036.04	1143.53
3036.43	1156.54
3036.83	1159.54
3037.22	1199.54
3037.62	1153.55
3038.01	1157.55
3038.41	1175.55
3038.81	1209.56
3039.2	1144.56
3039.6	1168.56
3039.99	1175.57
3040.39	1148.57
3040.78	1182.57
3041.18	1168.58
3041.57	1215.58
3041.97	1198.58
3042.36	1141.59
3042.76	1206.59
3043.15	1129.59
3043.55	1174.6
3043.94	1167.6
3044.34	1150.6
3044.73	1157.61
3045.13	1138.61
3045.52	1194.61
3045.92	1202.62
3046.31	1141.62
3046.71	1157.62
3047.1	1167.63
3047.5	1156.63
3047.89	1190.63
3048.29	1134.64
3048.68	1153.64
3049.08	1162.64
3049.47	1185.65
3049.87	1166.65
3050.26	1137.65
3050.66	1133.66
3051.05	1165.66
3051.44	1167.66
3051.84	1129.67
3052.23	1123.67
3052.63	1126.67
3053.02	1176.68
3053.42	1165.68
3053.81	1135.68
3054.21	1177.69
3054.6	1200.69
3054.99	1155.69
3055.39	1197.7
3055.78	1148.7
3056.18	1129.7
3056.57	1121.71
3056.96	1192.71
3057.36	1178.71
3057.75	1176.72
3058.15	1141.72
3058.54	1138.72
3058.93	1130.73
3059.33	1120.73
3059.72	1139.73
3060.12	1122.74
3060.51	1134.74
3060.9	1146.74
3061.3	1173.74
3061.69	1139.75
3062.08	1148.75
3062.48	1125.76
3062.87	1190.76
3063.26	1155.76
3063.66	1115.77
3064.05	1117.77
3064.45	1151.77
3064.84	1127.77
3065.23	1183.78
3065.63	1135.78
3066.02	1176.78
3066.41	1150.79
3066.81	1123.79
3067.2	1117.79
3067.59	1146.8
3067.99	1162.8
3068.38	1114.8
3068.77	1115.81
3069.17	1133.81
3069.56	1117.81
3069.95	1181.82
3070.35	1113.82
3070.74	1152.82
3071.13	1139.83
3071.53	1121.83
3071.92	1156.83
3072.31	1156.84
3072.7	1169.84
3073.1	1177.84
3073.49	1142.85
3073.88	1123.85
3074.27	1148.85
3074.67	1125.86
3075.06	1157.86
3075.45	1164.86
3075.84	1109.87
3076.24	1166.87
3076.63	1123.87
3077.02	1179.88
3077.42	1123.88
3077.81	1138.88
3078.2	1110.89
3078.59	1120.89
3078.99	1111.89
3079.38	1118.9
3079.77	1146.9
3080.16	1166.9
3080.56	1103.91
3080.95	1117.91
3081.34	1191.91
3081.73	1128.92
3082.12	1108.92
3082.52	1129.92
3082.91	1101.93
3083.3	1134.93
3083.69	1171.93
3084.08	1108.94
3084.48	1101.94
3084.87	1123.94
3085.26	1152.95
3085.65	1137.95
3086.04	1181.95
3086.44	1146.96
3086.83	1122.96
3087.22	1158.96
3087.61	1132.97
3088	1131.97
3088.39	1128.97
3088.79	1184.98
3089.18	1128.98
3089.57	1143.98
3089.96	1131.99
3090.35	1128.99
3090.74	1101.99
3091.14	1096
3091.53	1098
3091.92	1099
3092.31	1127.01
3092.7	1117.01
3093.09	1185.01
3093.48	1113.02
3093.88	1152.02
3094.27	1096.02
3094.66	1127.03
3095.05	1100.03
3095.44	1166.03
3095.83	1154.04
3096.22	1099.04
3096.61	1169.04
3097.01	1125.05
3097.4	1127.05
3097.79	1159.05
3098.18	1097.06
3098.57	1090.06
3098.96	1152.06
3099.35	1124.07
3099.74	1158.07
3100.13	1120.07
3100.52	1099.08
3100.91	1102.08
3101.31	1089.08
3101.7	1094.09
3102.09	1145.09
3102.48	1091.09
3102.87	1114.1
3103.26	1127.1
3103.65	1149.1
3104.04	1092.11
3104.43	1144.11
3104.82	1100.11
3105.21	1088.12
3105.6	1099.12
3105.99	1112.12
3106.38	1149.13
3106.77	1152.13
3107.16	1085.13
3107.55	1113.14
3107.94	1095.14
3108.33	1113.14
3108.72	1155.15
3109.11	1125.15
3109.5	1089.15
3109.89	1120.16
3110.28	1098.16
3110.67	1125.16
3111.06	1113.17
3111.45	1122.17
3111.84	1093.17
3112.23	1088.18
3112.62	1151.18
3113.01	1114.18
3113.4	1092.19
3113.79	1148.19
3114.18	1122.19
3114.57	1091.2
3114.96	1108.2
3115.35	1105.2
3115.74	1159.21
3116.13	1086.21
3116.52	1130.21
3116.91	1095.22
3117.3	1106.22
3117.69	1089.22
3118.08	1140.23
3118.47	1081.23
3118.86	1084.23
3119.25	1079.24
3119.63	1108.24
3120.02	1078.24
3120.41	1088.25
3120.8	1073.25
3121.19	1138.25
3121.58	1114.26
3121.97	1153.26
3122.36	1099.26
3122.75	1118.07
3123.14	1074.55
3123.53	1105.24
3123.92	1113.44
3124.3	1090.59
3124.69	1084.32
3125.08	1124.23
3125.47	1075.02
3125.86	1088.66
3126.25	1080.64
3126.64	1076.75
3127.03	1149.5
3127.41	1103.27
3127.8	1082.6
3128.19	1112.59
3128.58	1097.26
3128.97	1099.69
3129.36	1092.42
3129.75	1106.13
3130.14	1117.79
3130.52	1074.9
3130.91	1086.24
3131.3	1098.45
3131.69	1086.42
3132.08	1073.85
3132.47	1071.85
3132.85	1082.37
3133.24	1065.57
3133.63	1124.42
3134.02	1084.65
3134.41	1070.36
3134.8	1113.81
3135.18	1084.37
3135.57	1062.8
3135.96	1073.65
3136.35	1077.22
3136.74	1116.62
3137.12	1065.86
3137.51	1123.06
3137.9	1065.33
3138.29	1106.05
3138.68	1084.91
3139.06	1079.89
3139.45	1077.73
3139.84	1077.68
3140.23	1063.61
3140.61	1076.15
3141	1093.68
3141.39	1088.88
3141.78	1065.8
3142.16	1080.62
3142.55	1107.59
3142.94	1088.42
3143.33	1107.78
3143.72	1121.95
3144.1	1093.82
3144.49	1072.33
3144.88	1077.75
3145.27	1098.28
3145.65	1066.21
3146.04	1094.89
3146.43	1070.99
3146.81	1074.55
3147.2	1079.96
3147.59	1099.58
3147.98	1083.13
3148.36	1071.41
3148.75	1076.8
3149.14	1078.91
3149.52	1063.25
3149.91	1061.99
3150.3	1085.79
3150.69	1092.94
3151.07	1111.83
3151.46	1097.14
3151.85	1059.67
3152.23	1083.29
3152.62	1092.89
3153.01	1081.32
3153.39	1068.16
3153.78	1075.42
3154.17	1065.74
3154.55	1064.27
3154.94	1088.77
3155.33	1066.61
3155.71	1059.38
3156.1	1085.78
3156.49	1086.12
3156.87	1090.84
3157.26	1073.96
3157.65	1069.64
3158.03	1081.07
3158.42	1094.13
3158.8	1072.91
3159.19	1083.26
3159.58	1092.18
3159.96	1066.54
3160.35	1062.31
3160.74	1084.67
3161.12	1092.24
3161.51	1081.93
3161.89	1054.82
3162.28	1039.24
3162.67	1064.53
3163.05	1102.73
3163.44	1077.51
3163.66	1036.44
3164.06	1032.45
3164.45	1036.45
3164.84	1034.45
3165.23	1034.46
3165.62	1054.46
3166.01	1086.47
3166.4	1095.47
3166.79	1042.48
3167.18	1033.48
3167.58	1028.49
3167.97	1051.49
3168.36	1102.49
3168.75	1039.5
3169.14	1037.5
3169.53	1059.51
3169.92	1078.51
3170.31	1051.52
3170.7	1101.52
3171.09	1028.53
3171.48	1031.53
3171.87	1094.53
3172.26	1071.54
3172.65	1023.54
3173.05	1034.55
3173.44	1055.55
3173.83	1099.56
3174.22	1049.56
3174.61	1063.57
3175	1070.57
3175.39	1114.57
3175.78	1082.58
3176.17	1022.58
3176.56	1021.59
3176.95	1094.59
3177.34	1062.6
3177.73	1060.6
3178.12	1085.6
3178.51	1081.61
3178.9	1069.61
3179.29	1023.62
3179.68	1052.62
3180.07	1062.63
3180.46	1028.63
3180.85	1029.64
3181.24	1030.64
3181.63	1030.64
3182.02	1064.65
3182.41	1033.65
3182.8	1017.66
3183.19	1048.66
3183.58	1029.67
3183.97	1035.67
3184.36	1021.68
3184.75	1025.68
3185.14	1029.68
3185.53	1069.69
3185.92	1054.69
3186.31	1083.7
3186.7	1011.7
3187.09	1107.71
3187.48	1046.71
3187.87	1038.72
3188.26	1013.72
3188.65	1053.72
3189.03	1011.73
3189.42	1019.73
3189.81	1008.74
3190.2	1020.74
3190.59	1052.75
3190.98	1058.75
3191.37	1027.76
3191.76	1023.76
3192.15	1013.76
3192.54	1010.77
3192.93	1009.77
3193.32	1002.78
3193.7	1059.78
3194.09	1028.79
3194.48	1039.79
3194.87	1006.8
3195.26	1052.8
3195.65	1020.8
3196.04	1001.81
3196.43	1038.81
3196.82	1048.82
3197.2	1041.82
3197.59	1051.83
3197.98	1048.83
3198.37	1023.84
3198.76	1075.84
3199.15	1045.84
3199.54	1018.85
3199.93	1048.85
3200.31	1036.86
3200.7	1030.86
3201.09	1027.87
3201.48	1024.87
3201.87	1054.88
3202.26	1071.88
3202.64	1021.88
3203.03	1074.89
3203.42	1019.89
3203.81	1016.9
3204.2	1053.9
3204.59	1008.91
3204.97	1062.91
3205.36	1018.91
3205.75	1000.92
3206.14	1031.92
3206.53	1008.93
3206.92	1004.93
3207.3	989.937
3207.69	992.941
3208.08	1067.95
3208.47	1001.95
3208.86	1057.95
3209.24	1035.96
3209.63	1053.96
3210.02	1003.97
3210.41	1006.97
3210.79	1031.98
3211.18	988.981
3211.57	1025.99
3211.96	1029.99
3212.34	1011.99
3212.73	1051
3213.12	982.003
3213.51	987.008
3213.9	998.012
3214.28	1070.02
3214.67	1000.02
3215.06	987.025
3215.45	1029.03
3215.83	980.034
3216.22	1018.04
3216.61	1004.04
3217	1006.05
3217.38	1004.05
3217.77	993.056
3218.16	1006.06
3218.54	984.065
3218.93	993.07
3219.32	1000.07
3219.71	1005.08
3220.09	1032.08
3220.48	1018.09
3220.87	1013.09
3221.25	982.096
3221.64	999.101
3222.03	993.105
3222.41	1049.11
3222.8	1044.11
3223.19	996.118
3223.57	980.123
3223.96	1027.13
3224.35	1015.13
3224.74	993.136
3225.12	994.14
3225.51	1031.14
3225.9	1025.15
3226.28	1045.15
3226.67	992.158
3227.06	1006.16
3227.44	989.167
3227.83	1006.17
3228.21	978.176
3228.6	1034.18
3228.99	990.185
3229.37	994.189
3229.76	996.194
3230.15	1044.2
3230.53	1021.2
3230.92	978.207
3231.31	992.211
3231.69	987.216
3232.08	988.22
3232.46	962.224
3232.85	984.229
3233.24	1045.23
3233.62	984.238
3234.01	1008.24
3234.39	1003.25
3234.78	1047.25
3235.17	961.255
3235.55	970.26
3235.94	1007.26
3236.32	1015.27
3236.71	963.273
3237.1	988.278
3237.48	958.282
3237.87	964.286
3238.25	993.291
3238.64	965.295
3239.02	967.3
3239.41	998.304
3239.8	974.309
3240.18	992.313
3240.57	983.317
3240.95	1006.32
3241.34	953.326
3241.72	990.331
3242.11	971.335
3242.49	955.34
3242.88	963.344
3243.26	977.348
3243.65	958.353
3244.04	965.357
3244.42	949.362
3244.81	964.366
3245.19	948.37
3245.58	948.375
3245.96	970.379
3246.35	995.384
3246.73	995.388
3247.12	1010.39
3247.5	949.397
3247.89	998.401
3248.27	993.406
3248.66	1017.41
3249.04	964.415
3249.43	962.419
3249.81	974.424
3250.2	997.428
3250.58	955.432
3250.97	945.437
3251.35	1005.44
3251.74	951.446
3252.12	946.45
3252.51	950.455
3252.89	991.459
3253.27	962.463
3253.66	1018.47
3254.04	945.472
3254.43	951.477
3254.81	1022.48
3255.2	971.485
3255.58	979.49
3255.97	939.494
3256.35	979.499
3256.74	967.503
3257.12	1007.51
3257.5	1014.51
3257.89	957.516
3258.27	957.521
3258.66	999.525
3259.04	951.53
3259.42	936.534
3259.81	1005.54
3260.19	1008.54
3260.58	1010.55
3260.96	974.552
3261.34	962.556
3261.73	983.561
3262.11	950.565
3262.5	961.57
3262.88	938.574
3263.27	977.578
3263.65	966.583
3264.03	938.587
3264.42	934.592
3264.8	1006.6
3265.18	950.601
3265.57	976.605
3265.95	937.609
3266.34	954.614
3266.72	977.618
3267.1	939.623
3267.48	969.627
3267.87	941.632
3268.25	964.636
3268.64	927.64
3269.02	943.645
3269.4	923.649
3269.79	921.654
3270.17	982.658
3270.55	950.663
3270.94	945.667
3271.32	919.671
3271.7	1011.68
3272.09	920.68
3272.47	953.685
3272.85	922.689
3273.23	937.694
3273.62	948.698
3274	939.702
3274.39	925.707
3274.77	927.711
3275.15	958.716
3275.53	942.72
3275.92	976.724
3276.3	960.729
3276.68	955.733
3277.07	975.738
3277.45	934.742
3277.83	975.747
3278.21	924.751
3278.6	919.755
3278.98	942.76
3279.36	930.764
3279.74	927.769
3280.13	922.773
3280.51	959.778
3280.89	916.782
3281.27	944.786
3281.66	921.791
3282.04	939.795
3282.42	911.8
3282.8	910.804
3283.19	954.809
3283.57	976.813
3283.95	908.817
3284.33	919.822
3284.72	940.826
3285.1	907.831
3285.48	973.835
3285.86	947.84
3286.24	908.844
3286.63	943.848
3287.01	903.853
3287.39	912.857
3287.77	914.862
3288.16	936.866
3288.54	915.871
3288.92	928.875
3289.3	915.879
3289.68	944.884
3290.07	911.888
3290.45	941.893
3290.83	906.897
3291.21	922.901
3291.59	947.906
3291.97	980.91
3292.36	901.915
3292.74	941.919
3293.12	899.924
3293.5	932.928
3293.88	987.932
3294.26	899.937
3294.64	917.941
3295.03	947.946
3295.41	900.95
3295.79	899.955
3296.17	931.959
3296.55	913.963
3296.93	923.968
3297.31	960.972
3297.7	910.977
3298.08	912.981
3298.46	954.986
3298.84	912.99
3299.22	936.994
3299.6	925.999
3299.98	896.003
3300.36	942.008
3300.75	892.012
3301.13	914.017
3301.51	895.021
3301.89	943.025
3302.27	920.03
3302.65	888.034
3303.03	911.039
3303.41	902.043
3303.79	889.048
3304.17	902.052
3304.55	958.056
3304.94	904.061
3305.32	888.065
3305.7	911.07
3306.08	883.074
3306.46	898.079
3306.84	947.083
3307.22	919.087
3307.6	908.092
3307.98	899.096
3308.36	938.101
3308.74	923.105
3309.12	905.109
3309.5	973.114
3309.88	962.118
3310.26	928.123
3310.64	928.127
3311.02	926.132
3311.4	948.136
3311.79	911.141
3312.17	913.145
3312.54	941.149
3312.93	923.154
3313.31	894.158
3313.69	907.163
3314.06	921.167
3314.45	872.172
3314.83	895.176
3315.21	912.18
3315.58	871.185
3315.97	883.189
3316.35	887.194
3316.73	875.198
3317.1	889.202
3317.48	873.207
3317.86	897.211
3318.25	908.216
3318.62	885.22
3319	904.225
3319.38	926.229
3319.76	907.233
3320.14	866.238
3320.52	881.242
3320.9	885.247
3321.28	910.251
3321.66	916.255
3322.04	900.26
3322.42	873.264
3322.8	891.269
3323.18	902.273
3323.56	941.278
3323.94	925.282
3324.32	889.286
3324.7	881.291
3325.08	890.295
3325.46	865.3
3325.83	895.304
3326.21	895.309
3326.59	865.313
3326.97	871.317
3327.35	861.322
3327.73	881.326
3328.11	873.331
3328.49	907.335
3328.87	907.34
3329.25	860.344
3329.63	859.348
3330	879.353
3330.38	932.357
3330.76	907.362
3331.14	919.366
3331.52	854.371
3331.9	853.375
3332.28	853.379
3332.65	892.384
3333.03	880.388
3333.41	883.393
3333.79	856.397
3334.17	850.401
3334.55	920.406
3334.93	863.41
3335.3	909.415
3335.68	900.419
3336.06	870.424
3336.44	872.428
3336.82	867.432
3337.2	856.437
3337.58	886.441
3337.95	872.446
3338.33	884.45
3338.71	849.455
3339.09	927.459
3339.47	849.464
3339.85	884.468
3340.22	912.472
3340.6	884.477
3340.98	853.481
3341.36	845.486
3341.73	869.49
3342.11	882.494
3342.49	842.499
3342.87	839.503
3343.25	849.508
3343.63	886.512
3344	877.517
3344.38	885.521
3344.76	887.525
3345.14	931.53
3345.51	845.534
3345.89	835.539
3346.27	841.543
3346.65	892.548
3347.02	835.552
3347.4	835.556
3347.78	840.561
3348.16	898.565
3348.53	858.57
3348.91	919.574
3349.29	915.579
3349.67	863.583
3350.04	897.587
3350.42	835.592
3350.8	839.596
3351.18	875.601
3351.55	832.605
3351.93	886.61
3352.31	856.614
3352.69	882.618
3353.06	870.623
3353.44	917.627
3353.82	899.632
3354.19	854.636
3354.57	835.641
3354.95	833.645
3355.32	862.649
3355.7	891.654
3356.08	859.658
3356.46	836.663
3356.83	834.667
3357.21	864.672
3357.59	836.676
3357.96	890.68
3358.34	831.685
3358.72	829.689
3359.09	836.694
3359.47	822.698
3359.85	866.702
3360.22	842.707
3360.6	903.711
3360.98	892.716
3361.35	837.72
3361.73	847.725
3362.11	852.729
3362.48	858.733
3362.86	826.738
3363.24	912.742
3363.61	855.747
3363.99	820.751
3364.36	891.756
3364.74	849.76
3365.12	853.764
3365.49	857.769
3365.87	859.773
3366.25	831.778
3366.62	825.782
3367	824.787
3367.37	862.791
3367.75	830.795
3368.13	837.8
3368.5	815.804
3368.88	856.809
3369.25	811.813
3369.63	826.818
3370.01	865.822
3370.38	849.826
3370.76	842.831
3371.13	842.835
3371.51	811.84
3371.88	835.844
3372.26	821.849
3372.64	810.853
3373.01	807.857
3373.39	827.862
3373.76	848.866
3374.14	837.871
3374.51	823.875
3374.89	814.879
3375.27	819.884
3375.64	818.888
3376.02	854.893
3376.39	828.897
3376.77	846.902
3377.14	845.906
3377.52	845.91
3377.89	822.915
3378.27	831.919
3378.64	818.924
3379.02	858.928
3379.39	803.933
3379.77	808.937
3380.14	848.941
3380.52	847.946
3380.89	796.95
3381.27	804.955
3381.64	831.959
3382.02	863.964
3382.4	828.968
3382.77	800.972
3383.14	852.977
3383.52	793.981
3383.89	857.986
3384.27	805.99
3384.64	795.995
3385.02	870.999
3385.39	813.003
3385.77	820.008
3386.14	838.012
3386.52	814.017
3386.89	798.021
3387.27	833.026
3387.64	861.03
3388.02	824.034
3388.39	787.039
3388.76	837.043
3389.14	846.048
3389.51	802.052
3389.89	805.057
3390.26	850.061
3390.64	792.065
3391.01	862.07
3391.38	799.074
3391.76	811.079
3392.13	809.083
3392.51	848.088
3392.88	834.092
3393.26	855.096
3393.63	794.101
3394	795.105
3394.38	784.11
3394.75	794.114
3395.13	822.118
3395.5	796.123
3395.88	858.127
3396.25	788.132
3396.62	815.136
3397	794.141
3397.37	797.145
3397.74	790.149
3398.12	778.154
3398.49	831.158
3398.87	867.163
3399.24	869.167
3399.61	777.172
3399.99	785.176
3400.36	841.18
3400.73	795.185
3401.11	801.189
3401.48	793.194
3401.85	775.198
3402.23	780.203
3402.6	855.207
3402.98	806.211
3403.35	864.216
3403.72	810.22
3404.09	852.225
3404.47	806.229
3404.84	789.233
3405.21	792.238
3405.59	811.242
3405.96	797.247
3406.33	783.251
3406.71	811.256
3407.08	779.26
3407.45	818.264
3407.83	783.269
3408.2	768.273
3408.57	820.278
3408.95	788.282
3409.32	792.287
3409.69	812.291
3410.06	846.295
3410.44	774.3
3410.81	771.304
3411.18	830.309
3411.55	777.313
3411.93	765.318
3412.3	786.322
3412.67	794.326
3413.05	819.331
3413.42	791.335
3413.79	815.34
3414.16	811.344
3414.54	766.349
3414.91	773.353
3415.28	771.357
3415.65	772.362
3416.03	814.366
3416.4	786.371
3416.77	792.375
3417.14	810.38
3417.52	774.384
3417.89	815.388
3418.26	777.393
3418.63	789.397
3419.01	835.402
3419.38	793.406
3419.75	756.41
3420.12	759.415
3420.49	769.419
3420.87	766.424
3421.24	762.428
3421.61	758.433
3421.98	811.437
3422.35	772.441
3422.73	787.446
3423.1	749.45
3423.47	819.455
3423.84	759.459
3424.21	778.464
3424.58	750.468
3424.96	754.472
3425.33	771.477
3425.7	805.481
3426.07	784.486
3426.44	752.49
3426.81	745.495
3427.19	792.499
3427.56	751.503
3427.93	789.508
3428.3	793.512
3428.67	747.517
3429.04	742.521
3429.42	824.526
3429.79	788.53
3430.16	755.534
3430.53	741.539
3430.9	779.543
3431.27	739.548
3431.64	770.552
3432.01	740.557
3432.39	785.561
3432.76	835.565
3433.13	788.57
3433.5	748.574
3433.87	770.579
3434.24	736.583
3434.61	740.588
3434.98	739.592
3435.36	736.596
3435.73	738.601
3436.1	761.605
3436.47	734.61
3436.84	738.614
3437.21	745.619
3437.58	757.623
3437.95	731.627
3438.32	747.632
3438.69	750.636
3439.06	771.641
3439.43	753.645
3439.8	769.649
3440.18	741.654
3440.54	739.658
3440.92	739.663
3441.29	755.667
3441.66	779.672
3442.03	811.676
3442.4	806.68
3442.77	789.685
3443.14	761.689
3443.51	749.694
3443.88	746.698
3444.25	764.703
3444.62	773.707
3444.99	723.711
3445.36	725.716
3445.73	784.72
3446.1	728.725
3446.47	744.729
3446.84	752.734
3447.21	722.738
3447.58	740.742
3447.95	735.747
3448.32	764.751
3448.69	783.756
3449.06	739.76
3449.43	723.765
3449.8	774.769
3450.17	730.773
3450.54	723.778
3450.91	727.782
3451.28	738.787
3451.65	771.791
3452.02	751.795
3452.39	772.8
3452.76	743.804
3453.13	749.809
3453.5	741.813
3453.87	729.818
3454.24	718.822
3454.61	787.826
3454.98	787.831
3455.35	740.835
3455.72	750.84
3456.09	715.844
3456.46	710.849
3456.82	710.853
3457.19	730.857
3457.56	722.862
3457.93	753.866
3458.3	716.871
3458.67	775.875
3459.04	729.88
3459.41	721.884
3459.78	803.888
3460.15	733.893
3460.52	731.897
3460.89	719.902
3461.25	744.906
3461.62	759.911
3461.99	747.915
3462.36	716.919
3462.73	704.924
3463.1	773.928
3463.47	716.933
3463.84	764.937
3464.21	712.942
3464.57	732.946
3464.94	753.95
3465.31	736.955
3465.68	755.959
3466.05	721.964
3466.42	763.968
3466.79	789.972
3467.16	749.977
3467.52	752.981
3467.89	724.986
3468.26	736.99
3468.63	716.995
3469	720.999
3469.37	765.003
3469.73	750.008
3470.1	703.012
3470.47	696.017
3470.84	712.021
3471.21	704.026
3471.58	696.03
3471.94	718.034
3472.31	710.073
3472.68	715.695
3473.05	749.082
3473.42	712.061
3473.78	750.53
3474.15	755.078
3474.52	750.115
3474.89	716.533
3475.26	701.14
3475.62	701.052
3475.99	717.329
3476.36	751.969
3476.73	708.591
3477.1	697.354
3477.46	729.43
3477.83	698.143
3478.2	696.995
3478.57	705.25
3478.94	717.767
3479.3	711.07
3479.67	692.467
3480.04	743.609
3480.41	736.426
3480.77	727.605
3481.14	703.63
3481.51	711.859
3481.88	704.799
3482.24	712.49
3482.61	698.709
3482.98	693.705
3483.35	682.658
3483.71	702.074
3484.08	694.377
3484.45	704.218
3484.81	689.186
3485.18	722.757
3485.55	711.282
3485.92	716.515
3486.28	702.448
3486.65	708.47
3487.02	726.402
3487.38	740.85
3487.75	694.063
3488.12	715.816
3488.49	716.403
3488.85	699.414
3489.22	688.707
3489.59	697.228
3489.95	699.439
3490.32	698.674
3490.69	689.21
3491.05	685.472
3491.42	725.646
3491.79	678.469
3492.15	703.328
3492.52	684.721
3492.89	706.64
3493.25	681.17
3493.62	680.42
3493.99	697.563
3494.35	693.512
3494.72	702.239
3495.09	716.021
3495.45	732.725
3495.82	692.68
3496.19	689.974
3496.55	699.499
3496.92	711.118
3497.28	707.03
3497.65	686.566
3498.02	711.821
3498.38	684.803
3498.75	699.589
3499.12	679.832
3499.48	684
3499.85	718.225
3500.21	682.082
3500.58	717.171
3500.95	673.867
3501.31	667.418
3501.68	669.589
3502.04	698.531
3502.41	708.222
3502.78	681.099
3503.14	731.349
3503.51	683.166
3503.87	690.391
3504.24	680.512
3504.61	661.326
3504.97	674.911
3505.34	680.039
3505.7	712.085
3506.07	687.447
3506.43	682.027
3506.8	683.938
3507.17	672.377
3507.53	660.395
3507.9	706.457
3508.26	679.429
3508.63	713.801
3508.99	704.162
3509.36	671.064
3509.72	674.311
3510.09	717.71
3510.45	688.937
3510.82	699.947
3511.18	672.131
3511.31	649.827
3511.68	687.823
3512.05	688.82
3512.42	716.817
3512.79	665.814
3513.16	646.81
3513.53	692.807
3513.9	734.804
3514.27	656.801
3514.64	681.797
3515.01	674.794
3515.38	654.791
3515.75	644.788
3516.12	668.784
3516.49	643.781
3516.86	699.778
3517.23	664.775
3517.6	681.771
3517.97	661.768
3518.34	676.765
3518.71	699.761
3519.08	657.758
3519.45	638.755
3519.82	669.752
3520.19	642.748
3520.56	704.745
3520.93	640.742
3521.3	670.739
3521.67	636.735
3522.04	673.732
3522.41	700.729
3522.78	675.726
3523.15	653.722
3523.52	673.719
3523.89	660.716
3524.26	719.713
3524.63	668.709
3525	637.706
3525.37	651.703
3525.74	655.7
3526.11	695.696
3526.48	696.693
3526.84	681.69
3527.21	671.687
3527.58	709.683
3527.95	631.68
3528.32	670.677
3528.69	684.674
3529.06	628.67
3529.43	681.667
3529.8	648.664
3530.17	671.66
3530.54	653.657
3530.9	712.654
3531.27	626.651
3531.64	638.647
3532.01	655.644
3532.38	627.641
3532.75	671.638
3533.12	678.634
3533.49	689.631
3533.86	629.628
3534.22	713.625
3534.59	668.621
3534.96	699.618
3535.33	622.615
3535.7	651.612
3536.07	668.608
3536.44	625.605
3536.8	699.602
3537.17	643.599
3537.54	691.595
3537.91	689.592
3538.28	679.589
3538.65	640.586
3539.01	636.582
3539.38	618.579
3539.75	690.576
3540.12	654.573
3540.49	641.569
3540.86	649.566
3541.23	633.563
3541.59	661.559
3541.96	634.556
3542.33	630.553
3542.7	617.55
3543.07	629.546
3543.43	631.543
3543.8	680.54
3544.17	625.537
3544.54	644.533
3544.91	618.53
3545.27	662.527
3545.64	624.524
3546.01	649.52
3546.38	619.517
3546.75	655.514
3547.11	691.511
3547.48	638.507
3547.85	675.504
3548.22	654.501
3548.58	674.497
3548.95	650.494
3549.32	673.491
3549.69	647.488
3550.05	659.484
3550.42	634.481
3550.79	680.478
3551.16	676.475
3551.52	634.471
3551.89	650.468
3552.26	653.465
3552.63	685.462
3552.99	654.458
3553.36	623.455
3553.73	625.452
3554.1	613.449
3554.46	667.445
3554.83	607.442
3555.2	653.439
3555.56	621.436
3555.93	653.432
3556.3	647.429
3556.67	629.426
3557.03	602.423
3557.4	600.419
3557.77	601.416
3558.13	676.413
3558.5	600.41
3558.87	676.406
3559.24	647.403
3559.6	619.4
3559.97	660.396
3560.34	631.393
3560.7	661.39
3561.07	642.387
3561.44	667.383
3561.8	625.38
3562.17	637.377
3562.54	595.374
3562.9	595.37
3563.27	640.367
3563.64	601.364
3564	602.361
3564.37	595.357
3564.74	601.354
3565.1	623.351
3565.47	660.348
3565.84	669.344
3566.2	642.341
3566.57	667.338
3566.93	636.335
3567.3	610.331
3567.67	598.328
3568.03	610.325
3568.4	609.322
3568.76	592.318
3569.13	646.315
3569.5	615.312
3569.86	648.309
3570.23	623.305
3570.6	601.302
3570.96	593.299
3571.33	619.295
3571.69	618.292
3572.06	614.289
3572.43	658.286
3572.79	626.282
3573.16	592.279
3573.52	625.276
3573.89	607.273
3574.26	620.269
3574.62	624.266
3574.99	585.263
3575.35	592.26
3575.72	653.256
3576.08	634.253
3576.45	606.25
3576.82	662.247
3577.18	600.243
3577.55	599.24
3577.91	648.237
3578.28	635.234
3578.64	594.23
3579.01	641.227
3579.37	629.224
3579.74	590.221
3580.1	634.217
3580.47	644.214
3580.83	598.211
3581.2	590.208
3581.57	647.204
3581.93	629.201
3582.3	637.198
3582.66	610.194
3583.03	612.191
3583.39	639.188
3583.76	588.185
3584.12	591.181
3584.49	630.178
3584.85	627.175
3585.22	593.172
3585.58	650.168
3585.95	579.165
3586.31	606.162
3586.68	622.159
3587.04	630.155
3587.41	621.152
3587.77	666.149
3588.14	585.146
3588.5	624.142
3588.87	592.139
3589.23	579.136
3589.59	641.133
3589.96	592.129
3590.32	581.126
3590.69	594.123
3591.05	581.12
3591.42	610.116
3591.78	657.113
3592.15	642.11
3592.51	582.107
3592.88	632.103
3593.24	598.1
3593.6	569.097
3593.97	609.094
3594.33	581.09
3594.7	597.087
3595.06	601.084
3595.43	597.08
3595.79	633.077
3596.15	600.074
3596.52	566.071
3596.88	607.067
3597.25	581.064
3597.61	584.061
3597.98	572.058
3598.34	579.054
3598.7	617.051
3599.07	602.048
3599.43	635.045
3599.79	562.041
3600.16	587.038
3600.52	594.035
3600.89	588.031
3601.25	623.028
3601.61	579.025
3601.98	569.022
3602.34	558.018
3602.71	597.015
3603.07	634.012
3603.43	601.009
3603.8	577.005
3604.16	638.002
3604.52	578.999
3604.89	576.996
3605.25	565.992
3605.61	562.989
3605.98	583.986
3606.34	629.983
3606.71	570.979
3607.07	591.976
3607.43	570.973
3607.79	575.97
3608.16	579.966
3608.52	562.963
3608.88	553.96
3609.25	574.957
3609.61	611.953
3609.97	555.95
3610.34	581.947
3610.7	554.944
3611.06	563.94
3611.43	580.937
3611.79	562.934
3612.15	551.931
3612.51	548.927
3612.88	568.924
3613.24	562.921
3613.6	589.917
3613.97	554.914
3614.33	553.911
3614.69	561.908
3615.06	573.904
3615.42	586.901
3615.78	602.898
3616.14	579.895
3616.51	602.891
3616.87	607.888
3617.23	554.885
3617.59	573.882
3617.96	567.878
3618.32	545.875
3618.68	554.872
3619.04	568.869
3619.41	581.865
3619.77	593.862
3620.13	580.859
3620.49	579.856
3620.86	617.852
3621.22	615.849
3621.58	572.846
3621.94	540.843
3622.31	582.839
3622.67	601.836
3623.03	598.833
3623.39	601.83
3623.75	590.826
3624.12	613.823
3624.48	555.82
3624.84	537.816
3625.2	540.813
3625.56	560.81
3625.93	572.807
3626.29	559.803
3626.65	581.8
3627.01	557.797
3627.37	613.794
3627.74	552.79
3628.1	570.787
3628.46	597.784
3628.82	551.781
3629.18	539.777
3629.55	550.774
3629.91	605.771
3630.27	569.768
3630.63	540.764
3630.99	555.761
3631.35	552.758
3631.72	542.755
3632.08	568.751
3632.44	555.748
3632.8	562.745
3633.16	538.742
3633.52	544.738
3633.88	540.735
3634.25	557.732
3634.61	596.728
3634.97	574.725
3635.33	578.722
3635.69	557.719
3636.05	546.715
3636.41	595.712
3636.77	594.709
3637.14	530.706
3637.5	534.702
3637.86	531.699
3638.22	527.696
3638.58	539.693
3638.94	526.689
3639.3	587.686
3639.66	556.683
3640.02	535.68
3640.38	558.676
3640.75	531.673
3641.11	528.67
3641.47	576.667
3641.83	545.663
3642.19	567.66
3642.55	553.657
3642.91	599.654
3643.27	552.65
3643.63	524.647
3643.99	564.644
3644.35	521.64
3644.71	522.637
3645.07	574.634
3645.43	533.631
3645.8	543.627
3646.16	530.624
3646.52	597.621
3646.88	569.618
3647.24	519.614
3647.6	539.611
3647.96	559.608
3648.32	544.605
3648.68	581.601
3649.04	517.598
3649.4	541.595
3649.76	549.592
3650.12	532.588
3650.48	538.585
3650.84	589.582
3651.2	589.579
3651.56	576.575
3651.92	520.572
3652.28	572.569
3652.64	541.566
3653	531.562
3653.36	517.559
3653.72	601.556
3654.08	529.552
3654.44	539.549
3654.8	519.546
3655.16	527.543
3655.52	577.539
3655.88	515.536
3656.24	546.533
3656.6	523.53
3656.96	578.526
3657.32	556.523
3657.68	518.52
3658.04	574.517
3658.4	513.513
3658.76	577.51
3659.12	526.507
3659.48	536.504
3659.83	527.5
3660.19	509.497
3660.55	559.494
3660.91	540.491
3661.27	513.487
3661.63	539.484
3661.99	541.481
3662.35	519.478
3662.71	523.474
3663.07	539.471
3663.43	546.468
3663.79	508.465
3664.15	508.461
3664.51	536.458
3664.87	596.455
3665.22	534.451
3665.58	574.448
3665.94	553.445
3666.3	565.442
3666.66	507.438
3667.02	570.435
3667.38	515.432
3667.74	580.429
3668.1	540.425
3668.45	530.422
3668.81	508.419
3669.17	517.416
3669.53	549.412
3669.89	541.409
3670.25	501.406
3670.61	503.403
3670.97	507.399
3671.32	534.396
3671.68	524.393
3672.04	523.39
3672.4	513.386
3672.76	512.383
3673.12	551.38
3673.48	539.377
3673.83	525.373
3674.19	536.37
3674.55	538.367
3674.91	505.363
3675.27	564.36
3675.63	533.357
3675.98	509.354
3676.34	533.35
3676.7	503.347
3677.06	557.344
3677.42	496.341
3677.78	510.337
3678.13	583.334
3678.49	520.331
3678.85	504.328
3679.21	586.324
3679.57	519.321
3679.92	510.318
3680.28	493.315
3680.64	545.311
3681	560.308
3681.35	536.305
3681.71	510.302
3682.07	494.298
3682.43	504.295
3682.79	544.292
3683.14	568.289
3683.5	522.285
3683.86	560.282
3684.22	491.279
3684.57	566.276
3684.93	527.272
3685.29	529.269
3685.65	539.266
3686.01	490.262
3686.36	507.259
3686.72	508.256
3687.08	504.253
3687.44	509.249
3687.79	512.246
3688.15	493.243
3688.51	487.24
3688.86	504.236
3689.22	529.233
3689.58	494.23
3689.94	508.227
3690.29	498.223
3690.65	521.22
3691.01	572.217
3691.37	501.214
3691.72	489.21
3692.08	503.207
3692.44	502.204
3692.79	570.201
3693.15	505.197
3693.51	488.194
3693.86	489.191
3694.22	491.188
3694.58	510.184
3694.93	536.181
3695.29	484.178
3695.65	485.174
3696.01	523.171
3696.36	512.168
3696.72	484.165
3697.08	486.161
3697.43	482.158
3697.79	494.155
3698.15	482.152
3698.5	507.148
3698.86	535.145
3699.22	526.142
3699.57	507.139
3699.93	552.135
3700.29	502.132
3700.64	505.129
3701	560.126
3701.35	493.122
3701.71	559.119
3702.07	517.116
3702.42	481.113
3702.78	500.109
3703.14	528.106
3703.49	484.103
3703.85	497.1
3704.21	486.096
3704.56	497.093
3704.92	487.09
3705.27	480.086
3705.63	514.083
3705.98	511.08
3706.34	510.077
3706.7	512.073
3707.05	556.07
3707.41	473.067
3707.77	522.064
3708.12	473.06
3708.48	523.057
3708.83	509.054
3709.19	479.051
3709.54	482.047
3709.9	491.044
3710.26	509.041
3710.61	476.038
3710.97	473.034
3711.32	474.031
3711.68	537.028
3712.03	477.025
3712.39	490.021
3712.75	534.018
3713.1	523.015
3713.46	492.012
3713.81	521.008
3714.17	488.005
3714.52	537.002
3714.88	478.999
3715.23	476.995
3715.59	518.992
3715.94	499.989
3716.3	503.985
3716.65	465.982
3717.01	498.979
3717.37	497.976
3717.72	472.972
3718.08	469.969
3718.43	527.966
3718.79	485.963
3719.14	532.959
3719.5	495.956
3719.85	487.953
3720.21	467.95
3720.56	474.946
3720.92	536.943
3721.27	518.94
3721.63	524.937
3721.98	492.933
3722.34	539.93
3722.69	479.927
3723.04	528.924
3723.4	470.92
3723.75	527.917
3724.11	496.914
3724.46	480.911
3724.82	482.907
3725.17	462.904
3725.53	529.901
3725.88	484.897
3726.24	511.894
3726.59	532.891
3726.95	516.888
3727.3	471.884
3727.65	497.881
3728.01	481.878
3728.36	485.875
3728.72	463.871
3729.07	502.868
3729.43	521.865
3729.78	532.862
3730.14	483.858
3730.49	516.855
3730.84	503.852
3731.2	490.849
3731.55	458.845
3731.91	497.842
3732.26	457.839
3732.61	469.836
3732.97	521.832
3733.32	495.829
3733.68	462.826
3734.03	498.823
3734.38	506.819
3734.74	480.816
3735.09	528.813
3735.45	514.81
3735.8	521.806
3736.15	531.803
3736.51	457.8
3736.86	479.796
3737.22	468.793
3737.57	498.79
3737.92	487.787
3738.28	521.783
3738.63	494.78
3738.98	512.777
3739.34	493.774
3739.69	464.77
3740.04	458.767
3740.4	494.764
3740.75	451.761
3741.1	454.757
3741.46	467.754
3741.81	454.751
3742.17	453.748
3742.52	488.744
3742.87	524.741
3743.22	498.738
3743.58	481.735
3743.93	546.731
3744.28	465.728
3744.64	455.725
3744.99	513.722
3745.34	471.718
3745.7	531.715
3746.05	511.712
3746.4	451.708
3746.76	459.705
3747.11	457.702
3747.46	458.699
3747.81	451.695
3748.17	467.692
3748.52	493.689
3748.87	450.686
3749.23	477.682
3749.58	477.679
3749.93	483.676
3750.28	484.673
3750.64	457.669
3750.99	474.666
3751.34	515.663
3751.7	477.66
3752.05	457.656
3752.4	490.653
3752.75	449.65
3753.11	463.647
3753.46	468.643
3753.81	458.64
3754.16	444.637
3754.52	442.634
3754.87	504.63
3755.22	511.627
3755.57	469.624
3755.93	502.62
3756.28	442.617
3756.63	490.614
3756.98	462.611
3757.33	471.607
3757.69	487.604
3758.04	481.601
3758.39	445.598
3758.74	503.594
3759.1	522.591
3759.45	459.588
3759.8	508.585
3760.15	449.581
3760.5	467.578
3760.86	454.575
3761.21	519.572
3761.56	447.568
3761.91	491.565
3762.26	438.562
3762.61	450.559
3762.97	462.555
3763.32	435.552
3763.67	471.549
3764.02	445.546
3764.37	445.542
3764.73	434.539
3765.08	435.536
3765.43	506.533
3765.78	471.529
3766.13	441.526
3766.48	447.523
3766.84	450.519
3767.19	449.516
3767.54	463.513
3767.89	452.51
3768.24	470.506
3768.59	499.503
3768.94	473.5
3769.3	446.497
3769.65	497.493
3770	526.49
3770.35	465.487
3770.7	432.484
3771.05	460.48
3771.4	466.477
3771.75	512.474
3772.1	471.471
3772.46	470.467
3772.81	475.464
3773.16	442.461
3773.51	483.458
3773.86	445.454
3774.21	444.451
3774.56	460.448
3774.91	480.445
3775.26	433.441
3775.61	437.438
3775.97	454.435
3776.32	445.431
3776.67	432.428
3777.02	519.425
3777.37	458.422
3777.72	496.418
3778.07	466.415
3778.42	451.412
3778.77	442.409
3779.12	454.405
3779.47	453.402
3779.82	459.399
3780.17	500.396
3780.52	500.392
3780.88	452.389
3781.22	439.386
3781.58	459.383
3781.93	434.379
3782.28	443.376
3782.63	516.373
3782.98	484.37
3783.33	466.366
3783.68	455.363
3784.03	477.36
3784.38	510.357
3784.73	442.353
3785.08	430.35
3785.43	511.347
3785.78	436.344
3786.13	431.34
3786.48	428.337
3786.83	474.334
3787.18	433.33
3787.53	438.327
3787.88	435.324
3788.23	481.321
3788.58	452.317
3788.93	513.314
3789.28	471.311
3789.63	445.308
3789.98	422.304
3790.33	440.301
3790.68	435.298
3791.03	463.295
3791.38	458.291
3791.73	477.288
3792.08	427.285
3792.43	421.282
3792.78	427.278
3793.13	426.275
3793.47	456.272
3793.82	489.269
3794.17	440.265
3794.52	490.262
3794.87	434.259
3795.22	442.255
3795.57	485.252
3795.92	461.249
3796.27	462.246
3796.62	441.242
3796.97	422.239
3797.32	435.236
3797.67	493.233
3798.02	473.229
3798.36	440.226
3798.71	463.223
3799.06	433.22
3799.41	431.216
3799.76	456.213
3800.11	461.21
3800.46	414.207
3800.81	437.203
3801.16	431.2
3801.51	427.197
3801.86	492.194
3802.2	485.19
3802.55	418.187
3802.9	483.184
3803.25	454.181
3803.6	418.177
3803.95	432.174
3804.3	423.171
3804.65	440.168
3804.99	477.164
3805.34	466.161
3805.69	484.158
3806.04	472.155
3806.39	416.151
3806.74	460.075
3807.09	466.91
3807.43	449.562
3807.78	463.806
3808.13	435.857
3808.48	443.953
3808.83	421.187
3809.18	434.37
3809.52	418.286
3809.87	458.803
3810.22	463.765
3810.57	416.78
3810.92	420.203
3811.27	434.392
3811.62	483.003
3811.96	457.602
3812.31	435.824
3812.66	481.458
3813.01	477.154
3813.36	457.807
3813.7	423.302
3814.05	458.775
3814.4	462.041
3814.75	441.963
3815.1	414.481
3815.44	458.034
3815.79	468.752
3816.14	459.383
3816.49	437.457
3816.83	432.708
3817.18	417.138
3817.53	450.863
3817.88	431.122
3818.22	428.736
3818.57	442.151
3818.92	432.405
3819.27	454.256
3819.62	414.212
3819.96	446.237
3820.31	485.458
3820.66	442.667
3821.01	459.273
3821.35	436.495
3821.7	467.462
3822.05	469.869
3822.39	433.398
3822.74	439.025
3823.09	438.127
3823.44	440.095
3823.78	445.052
3824.13	448.728
3824.48	440.424
3824.83	433.152
3825.17	440.972
3825.52	454.749
3825.87	450.229
3826.21	430.292
3826.56	425.384
3826.91	418.911
3827.26	442.515
3827.6	419.449
3827.95	408.231
3828.3	440.284
3828.64	435.277
3828.99	421.705
3829.34	444.216
3829.68	455.665
3830.03	453.721
3830.38	451.684
3830.72	448.779
3831.07	449.289
3831.42	446.514
3831.76	430.55
3832.11	429.79
3832.46	434.372
3832.8	439.162
3833.15	424.117
3833.5	420.992
3833.84	430.53
3834.19	416.397
3834.54	416.606
3834.88	412.719
3835.23	424.356
3835.58	404.422
3835.92	417.54
3836.27	418.438
3836.61	459.793
3836.96	437.407
3837.31	425.354
3837.65	436.554
3838	430.489
3838.35	451.228
3838.69	426.124
3839.04	402.703
3839.39	415.077
3839.73	429.083
3840.08	474.347
3840.08	474.844
3840.43	443.844
3840.78	427.844
3841.13	413.844
3841.48	425.844
3841.83	451.844
3842.18	402.844
3842.54	482.844
3842.89	422.845
3843.24	471.845
3843.59	420.845
3843.94	430.845
3844.29	422.845
3844.64	444.845
3844.99	417.845
3845.34	400.845
3845.69	398.845
3846.04	443.845
3846.39	427.845
3846.75	450.845
3847.1	449.845
3847.45	420.845
3847.8	433.845
3848.15	424.845
3848.5	405.845
3848.85	431.845
3849.2	395.845
3849.55	394.845
3849.9	394.845
3850.25	422.845
3850.6	434.846
3850.95	403.846
3851.3	407.846
3851.65	398.846
3852	428.846
3852.35	427.846
3852.7	411.846
3853.05	419.846
3853.4	435.846
3853.75	412.846
3854.1	426.846
3854.45	469.846
3854.8	437.846
3855.15	406.846
3855.5	415.846
3855.85	452.846
3856.2	407.846
3856.55	401.846
3856.9	467.846
3857.25	407.846
3857.6	421.846
3857.95	394.846
3858.3	402.846
3858.65	392.847
3859	432.847
3859.35	437.847
3859.7	397.847
3860.05	456.847
3860.4	404.847
3860.75	447.847
3861.1	405.847
3861.45	466.847
3861.8	476.847
3862.15	393.847
3862.5	416.847
3862.85	413.847
3863.2	429.847
3863.55	404.847
3863.9	466.847
3864.25	436.847
3864.6	404.847
3864.95	419.847
3865.29	453.847
3865.64	398.847
3865.99	390.848
3866.34	450.848
3866.69	444.848
3867.04	393.848
3867.39	422.848
3867.74	416.848
3868.09	414.848
3868.44	426.848
3868.79	397.848
3869.14	387.848
3869.48	439.848
3869.83	395.848
3870.18	424.848
3870.53	417.848
3870.88	431.848
3871.23	413.848
3871.58	441.848
3871.93	389.848
3872.28	414.848
3872.62	431.848
3872.97	424.848
3873.32	386.848
3873.67	399.848
3874.02	390.849
3874.37	408.849
3874.72	396.849
3875.07	399.849
3875.41	409.849
3875.76	456.849
3876.11	383.849
3876.46	398.849
3876.81	415.849
3877.16	426.849
3877.51	401.849
3877.85	435.849
3878.2	400.849
3878.55	395.849
3878.9	399.849
3879.25	451.849
3879.59	385.849
3879.94	446.849
3880.29	384.849
3880.64	451.849
3880.99	427.849
3881.34	388.849
3881.68	398.85
3882.03	447.85
3882.38	405.85
3882.73	384.85
3883.08	401.85
3883.42	396.85
3883.77	432.85
3884.12	390.85
3884.47	426.85
3884.82	407.85
3885.16	452.85
3885.51	401.85
3885.86	381.85
3886.21	396.85
3886.56	436.85
3886.9	414.85
3887.25	430.85
3887.6	446.85
3887.95	425.85
3888.29	466.85
3888.64	384.85
3888.99	385.85
3889.34	396.85
3889.68	391.851
3890.03	418.851
3890.38	444.851
3890.73	411.851
3891.07	427.851
3891.42	388.851
3891.77	399.851
3892.12	395.851
3892.46	404.851
3892.81	395.851
3893.16	377.851
3893.51	397.851
3893.85	407.851
3894.2	421.851
3894.55	402.851
3894.89	388.851
3895.24	404.851
3895.59	403.851
3895.94	388.851
3896.28	432.851
3896.63	401.851
3896.98	406.852
3897.32	392.852
3897.67	386.852
3898.02	409.852
3898.36	394.852
3898.71	427.852
3899.06	388.852
3899.4	390.852
3899.75	454.852
3900.1	406.852
3900.45	394.852
3900.79	409.852
3901.14	388.852
3901.48	433.852
3901.83	373.852
3902.18	413.852
3902.53	432.852
3902.87	414.852
3903.22	401.852
3903.56	444.852
3903.91	467.852
3904.26	418.852
3904.6	441.852
3904.95	375.853
3905.3	433.853
3905.64	380.853
3905.99	423.853
3906.34	374.853
3906.68	416.853
3907.03	438.853
3907.38	393.853
3907.72	380.853
3908.07	408.853
3908.41	387.853
3908.76	397.853
3909.11	424.853
3909.45	444.853
3909.8	374.853
3910.14	408.853
3910.49	386.853
3910.84	418.853
3911.18	375.853
3911.53	372.853
3911.87	443.853
3912.22	374.853
3912.57	408.854
3912.91	389.854
3913.26	388.854
3913.6	374.854
3913.95	398.854
3914.3	396.854
3914.64	417.854
3914.99	374.854
3915.33	410.854
3915.68	397.854
3916.02	405.854
3916.37	371.854
3916.71	456.854
3917.06	400.854
3917.41	422.854
3917.75	380.854
3918.1	412.854
3918.44	367.854
3918.79	400.854
3919.13	398.854
3919.48	442.854
3919.82	388.854
3920.17	385.855
3920.51	392.855
3920.86	434.855
3921.2	443.855
3921.55	393.855
3921.9	384.855
3922.24	381.855
3922.59	383.855
3922.93	372.855
3923.28	394.855
3923.62	453.855
3923.97	382.855
3924.31	438.855
3924.66	369.855
3925	365.855
3925.35	429.855
3925.69	430.855
3926.04	375.855
3926.38	372.855
3926.73	403.855
3927.07	454.855
3927.42	408.855
3927.76	366.856
3928.1	389.856
3928.45	381.856
3928.79	389.856
3929.14	377.856
3929.48	385.856
3929.83	424.856
3930.17	436.856
3930.52	383.856
3930.86	401.856
3931.21	402.856
3931.55	437.856
3931.89	388.856
3932.24	401.856
3932.58	404.856
3932.93	388.856
3933.27	384.856
3933.62	410.856
3933.96	392.856
3934.3	395.856
3934.65	368.856
3934.99	396.856
3935.34	379.857
3935.68	434.857
3936.03	386.857
3936.37	382.857
3936.71	367.857
3937.06	371.857
3937.4	394.857
3937.75	408.857
3938.09	363.857
3938.43	419.857
3938.78	392.857
3939.12	392.857
3939.47	414.857
3939.81	442.857
3940.15	415.857
3940.5	398.857
3940.84	409.857
3941.19	365.857
3941.53	416.857
3941.87	425.857
3942.22	381.857
3942.56	402.857
3942.9	420.858
3943.25	432.858
3943.59	385.858
3943.93	383.858
3944.28	436.858
3944.62	382.858
3944.97	404.858
3945.31	363.858
3945.65	367.858
3946	415.858
3946.34	437.858
3946.68	370.858
3947.03	369.858
3947.37	368.858
3947.71	359.858
3948.06	428.858
3948.4	432.858
3948.74	413.858
3949.09	370.858
3949.43	426.858
3949.77	363.858
3950.11	368.858
3950.46	362.859
3950.8	363.859
3951.14	395.859
3951.49	357.859
3951.83	420.859
3952.17	452.859
3952.52	395.859
3952.86	362.859
3953.2	406.859
3953.55	382.859
3953.89	389.859
3954.23	358.859
3954.57	436.859
3954.92	443.859
3955.26	407.859
3955.6	384.859
3955.94	395.859
3956.29	369.859
3956.63	365.859
3956.97	360.859
3957.32	388.859
3957.66	389.859
3958	369.86
3958.34	391.86
3958.69	404.86
3959.03	404.86
3959.37	363.86
3959.71	382.86
3960.06	422.86
3960.4	368.86
3960.74	395.86
3961.08	392.86
3961.42	424.86
3961.77	371.86
3962.11	367.86
3962.45	384.86
3962.79	376.86
3963.14	371.86
3963.48	357.86
3963.82	427.86
3964.16	369.86
3964.5	382.86
3964.85	357.86
3965.19	378.86
3965.53	354.861
3965.87	411.861
3966.21	408.861
3966.56	398.861
3966.9	384.861
3967.24	446.861
3967.58	353.861
3967.92	428.861
3968.27	373.861
3968.61	418.861
3968.95	394.861
3969.29	354.861
3969.63	369.861
3969.97	413.861
3970.32	356.861
3970.66	378.861
3971	351.861
3971.34	393.861
3971.68	367.861
3972.02	395.861
3972.36	418.861
3972.71	374.861
3973.05	390.862
3973.39	386.862
3973.73	386.862
3974.07	359.862
3974.41	440.862
3974.75	385.862
3975.1	376.862
3975.44	359.862
3975.78	357.862
3976.12	391.862
3976.46	379.862
3976.8	377.862
3977.14	438.862
3977.48	361.862
3977.82	405.862
3978.17	370.862
3978.51	390.862
3978.85	362.862
3979.19	357.862
3979.53	379.862
3979.87	358.862
3980.21	380.862
3980.55	380.862
3980.89	378.863
3981.23	371.863
3981.58	372.863
3981.92	371.863
3982.26	419.863
3982.6	356.863
3982.94	379.863
3983.28	402.863
3983.62	390.863
3983.96	401.863
3984.3	399.863
3984.64	354.863
3984.98	415.863
3985.32	431.863
3985.66	386.863
3986	403.863
3986.35	359.863
3986.68	376.863
3987.03	367.863
3987.37	412.863
3987.71	398.863
3988.05	375.863
3988.39	380.864
3988.73	397.864
3989.07	389.864
3989.41	355.864
3989.75	350.864
3990.09	381.864
3990.43	364.864
3990.77	379.864
3991.11	352.864
3991.45	400.864
3991.79	355.864
3992.13	366.864
3992.47	364.864
3992.81	396.864
3993.15	400.864
3993.49	351.864
3993.83	358.864
3994.17	354.864
3994.51	345.864
3994.85	350.864
3995.19	429.864
3995.53	352.864
3995.87	384.865
3996.21	379.865
3996.55	381.865
3996.89	380.865
3997.23	426.865
3997.57	422.865
3997.91	401.865
3998.25	423.865
3998.58	349.865
3998.92	369.865
3999.26	396.865
3999.6	416.865
3999.94	365.865
4000.28	430.865
4000.62	361.865
4000.96	363.865
4001.3	422.865
4001.64	359.865
4001.98	422.865
4002.32	397.865
4002.66	353.865
4003	348.866
4003.34	412.866
4003.68	418.866
4004.01	384.866
4004.35	392.866
4004.69	427.866
4005.03	357.866
4005.37	385.866
4005.71	414.866
4006.05	375.866
4006.39	412.866
4006.73	380.866
4007.07	369.866
4007.4	433.866
4007.74	376.866
4008.08	347.866
4008.42	354.866
4008.76	357.866
4009.1	363.866
4009.44	352.866
4009.78	356.866
4010.12	403.866
4010.45	351.866
4010.79	343.867
4011.13	351.867
4011.47	351.867
4011.81	356.867
4012.15	342.867
4012.49	347.867
4012.82	415.867
4013.16	365.867
4013.5	362.867
4013.84	381.867
4014.18	390.867
4014.52	376.867
4014.86	344.867
4015.19	372.867
4015.53	384.867
4015.87	355.867
4016.21	344.867
4016.55	355.867
4016.88	414.867
4017.22	340.867
4017.56	362.867
4017.9	399.867
4018.24	388.868
4018.58	432.868
4018.91	424.868
4019.25	369.868
4019.59	392.868
4019.93	359.868
4020.27	347.868
4020.6	382.868
4020.94	405.868
4021.28	406.868
4021.62	351.868
4021.96	355.868
4022.29	385.868
4022.63	347.868
4022.97	342.868
4023.31	392.868
4023.64	385.868
4023.98	367.868
4024.32	360.868
4024.66	341.868
4025	377.868
4025.33	378.868
4025.67	385.868
4026.01	367.869
4026.35	350.869
4026.68	349.869
4027.02	357.869
4027.36	366.869
4027.7	360.869
4028.03	386.869
4028.37	369.869
4028.71	383.869
4029.04	366.869
4029.38	352.869
4029.72	374.869
4030.06	408.869
4030.39	349.869
4030.73	395.869
4031.07	344.869
4031.4	365.869
4031.74	356.869
4032.08	378.869
4032.42	339.869
4032.75	395.869
4033.09	354.87
4033.43	405.87
4033.77	367.87
4034.1	347.87
4034.44	415.87
4034.77	367.87
4035.11	356.87
4035.45	354.87
4035.79	403.87
4036.12	396.87
4036.46	385.87
4036.8	390.87
4037.13	366.87
4037.47	391.87
4037.81	336.87
4038.14	346.87
4038.48	377.87
4038.82	410.87
4039.15	338.87
4039.49	375.87
4039.83	362.87
4040.16	349.87
4040.5	401.87
4040.83	376.871
4041.17	345.871
4041.51	365.871
4041.85	371.871
4042.18	397.871
4042.52	337.871
4042.85	357.871
4043.19	426.871
4043.53	368.871
4043.86	372.871
4044.2	385.871
4044.53	386.871
4044.87	343.871
4045.21	350.871
4045.54	339.871
4045.88	345.871
4046.22	376.871
4046.55	335.871
4046.89	381.871
4047.22	352.871
4047.56	358.871
4047.9	371.871
4048.23	337.872
4048.57	361.872
4048.9	379.872
4049.24	335.872
4049.57	369.872
4049.91	360.872
4050.25	334.872
4050.58	351.872
4050.92	359.872
4051.25	410.872
4051.59	398.872
4051.93	338.872
4052.26	360.872
4052.6	391.872
4052.93	333.872
4053.27	370.872
4053.6	387.872
4053.94	339.872
4054.27	347.872
4054.61	408.872
4054.94	349.872
4055.28	393.872
4055.62	344.873
4055.95	343.873
4056.29	354.873
4056.62	353.873
4056.96	390.873
4057.29	373.873
4057.63	399.873
4057.96	382.873
4058.3	371.873
4058.63	333.873
4058.97	343.873
4059.3	342.873
4059.64	356.873
4059.97	350.873
4060.31	389.873
4060.64	378.873
4060.98	341.873
4061.31	357.873
4061.65	409.873
4061.98	359.873
4062.32	348.873
4062.65	400.874
4062.99	387.874
4063.32	341.874
4063.66	371.874
4063.99	339.874
4064.33	385.874
4064.66	344.874
4065	336.874
4065.33	386.874
4065.66	334.874
4066	371.874
4066.33	389.874
4066.67	349.874
4067	334.874
4067.34	400.874
4067.67	332.874
4068.01	394.874
4068.34	352.874
4068.68	352.874
4069.01	378.874
4069.34	365.874
4069.68	348.874
4070.01	395.874
4070.35	346.875
4070.68	417.875
4071.02	331.875
4071.35	337.875
4071.68	347.875
4072.02	394.875
4072.35	333.875
4072.69	371.875
4073.02	368.875
4073.35	349.875
4073.69	335.875
4074.02	335.875
4074.36	379.875
4074.69	340.875
4075.02	340.875
4075.36	335.875
4075.69	386.875
4076.03	345.875
4076.36	365.875
4076.69	342.875
4077.03	367.875
4077.36	336.875
4077.69	425.876
4078.03	347.876
4078.36	347.876
4078.7	362.876
4079.03	334.876
4079.36	347.876
4079.7	338.876
4080.03	332.876
4080.36	337.876
4080.7	341.876
4081.03	356.876
4081.36	335.876
4081.7	329.876
4082.03	369.876
4082.36	383.876
4082.7	338.876
4083.03	345.876
4083.36	368.876
4083.7	401.876
4084.03	357.876
4084.36	368.876
4084.7	369.876
4085.03	359.876
4085.36	366.877
4085.7	332.877
4086.03	357.877
4086.36	394.877
4086.7	396.877
4087.03	375.877
4087.36	367.877
4087.7	328.877
4088.03	354.877
4088.36	338.877
4088.69	366.877
4089.03	328.877
4089.36	373.877
4089.69	371.877
4090.03	333.877
4090.36	381.877
4090.69	374.877
4091.02	335.877
4091.36	348.877
4091.69	354.877
4092.02	355.878
4092.35	345.878
4092.69	394.878
4093.02	339.878
4093.35	393.878
4093.69	357.878
4094.02	401.878
4094.35	342.878
4094.68	381.878
4095.01	343.878
4095.35	327.878
4095.68	361.878
4096.01	358.878
4096.35	374.878
4096.68	353.878
4097.01	369.878
4097.34	328.878
4097.67	382.878
4098.01	348.878
4098.34	415.878
4098.67	350.878
4099	326.878
4099.33	339.878
4099.67	399.879
4100	374.879
4100.33	384.879
4100.66	360.879
4101	359.879
4101.33	384.879
4101.66	347.879
4101.99	379.879
4102.32	355.879
4102.65	348.879
4102.99	333.879
4103.32	360.879
4103.65	376.879
4103.98	341.879
4104.31	395.879
4104.65	351.879
4104.98	345.879
4105.31	341.879
4105.64	325.879
4105.97	362.879
4106.3	337.879
4106.64	331.879
4106.97	344.88
4107.3	355.88
4107.63	338.88
4107.96	364.88
4108.29	345.88
4108.62	332.88
4108.96	334.88
4109.29	350.88
4109.62	359.88
4109.95	325.88
4110.28	361.88
4110.61	369.88
4110.94	375.88
4111.28	326.88
4111.61	354.88
4111.94	354.88
4112.27	370.88
4112.6	395.88
4112.93	364.88
4113.26	334.88
4113.59	339.88
4113.92	374.88
4114.25	360.88
4114.59	376.881
4114.92	358.881
4115.25	328.881
4115.58	351.881
4115.91	327.881
4116.24	351.881
4116.57	323.881
4116.9	383.881
4117.23	356.881
4117.56	326.881
4117.9	356.881
4118.23	376.881
4118.56	367.881
4118.89	335.881
4119.22	366.881
4119.55	411.881
4119.88	368.881
4120.21	348.881
4120.54	356.948
4120.87	357.729
4121.2	344.975
4121.53	380.421
4121.86	357.175
4122.19	371.66
4122.52	403.49
4122.85	330.382
4123.18	358.637
4123.52	330.815
4123.85	352.662
4124.18	358.027
4124.5	374.46
4124.83	340.675
4125.17	335.064
4125.5	327.34
4125.83	353.881
4126.16	338.984
4126.49	361.516
4126.82	326.3
4127.15	345.112
4127.48	325.906
4127.81	383.645
4128.14	340.14
4128.47	380.908
4128.8	370.528
4129.13	369.605
4129.46	329.849
4129.79	385.207
4130.12	357.884
4130.45	338.863
4130.77	332.554
4131.1	370.568
4131.44	381.979
4131.77	346.844
4132.1	335.12
4132.42	342.115
4132.75	338.002
4133.08	327.195
4133.41	345.419
4133.74	387.071
4134.07	344.702
4134.4	329.82
4134.73	357.569
4135.06	360.434
4135.39	345.79
4135.72	356.535
4136.05	330.201
4136.38	362.346
4136.71	353.317
4137.04	336.339
4137.37	361.116
4137.7	379.634
4138.03	342.871
4138.35	386.413
4138.68	339.027
4139.01	352.999
4139.34	363.197
4139.67	379.426
4140	361.379
4140.33	356.107
4140.66	361.665
4140.99	361.767
4141.32	358.031
4141.64	347.209
4141.97	345.621
4142.3	330.618
4142.63	378.173
4142.96	375.541
4143.29	361.332
4143.62	356.134
4143.95	349.652
4144.28	363.488
4144.6	339.563
4144.93	341.458
4145.26	350.861
4145.59	336.865
4145.92	359.143
4146.25	339.703
4146.58	332.357
4146.91	356.241
4147.23	343.059
4147.56	337.956
4147.89	334.11
4148.22	339.492
4148.55	368.062
4148.88	362.885
4149.21	353.076
4149.53	354.262
4149.86	338.352
4150.19	349.561
4150.52	348.053
4150.85	342.212
4151.18	354.863
4151.5	352.415
4151.83	355.68
4152.16	383.074
4152.49	342.746
4152.82	370.688
4153.14	358.201
4153.47	347.884
4153.8	333.897
4154.13	363.506
4154.46	339.716
4154.79	349.929
4155.11	341.497
4155.39	373.67
4155.72	327.666
4156.05	360.662
4156.39	373.658
4156.72	339.654
4157.05	330.65
4157.38	406.646
4157.72	334.642
4158.05	318.638
4158.38	381.634
4158.72	407.63
4159.05	377.626
4159.38	320.622
4159.71	369.618
4160.05	335.614
4160.38	373.61
4160.71	334.606
4161.04	354.602
4161.38	396.598
4161.71	324.594
4162.04	356.59
4162.37	346.587
4162.71	393.583
4163.04	355.579
4163.37	345.575
4163.7	352.571
4164.04	319.567
4164.37	325.563
4164.7	362.559
4165.03	359.555
4165.36	325.551
4165.7	317.547
4166.03	336.543
4166.36	334.539
4166.69	360.535
4167.02	331.531
4167.36	368.527
4167.69	329.523
4168.02	322.519
4168.35	358.515
4168.68	386.511
4169.02	326.507
4169.35	325.503
4169.68	334.499
4170.01	358.495
4170.34	380.491
4170.68	337.487
4171.01	331.483
4171.34	355.479
4171.67	317.475
4172	329.471
4172.33	351.467
4172.67	392.463
4173	323.459
4173.33	349.455
4173.66	319.451
4173.99	373.447
4174.32	385.443
4174.66	336.439
4174.99	336.435
4175.32	362.431
4175.65	331.427
4175.98	363.423
4176.31	365.419
4176.64	342.415
4176.98	343.411
4177.31	317.407
4177.64	390.403
4177.97	316.399
4178.3	355.395
4178.63	373.391
4178.96	356.387
4179.29	366.383
4179.63	329.379
4179.96	346.375
4180.29	359.371
4180.62	375.367
4180.95	322.363
4181.28	343.359
4181.61	321.355
4181.94	321.351
4182.27	359.347
4182.6	328.343
4182.94	358.339
4183.27	323.335
4183.6	359.331
4183.93	354.327
4184.26	325.323
4184.59	327.319
4184.92	383.315
4185.25	399.311
4185.58	351.307
4185.91	386.303
4186.25	340.299
4186.58	315.295
4186.91	354.291
4187.24	358.287
4187.57	407.283
4187.9	339.279
4188.23	326.275
4188.56	329.271
4188.89	349.267
4189.22	329.263
4189.55	333.259
4189.88	330.255
4190.21	344.251
4190.54	370.247
4190.87	370.243
4191.2	351.239
4191.53	325.235
4191.86	315.231
4192.19	318.227
4192.52	315.223
4192.85	315.219
4193.18	350.215
4193.51	387.211
4193.84	316.208
4194.17	318.204
4194.5	378.2
4194.83	328.196
4195.16	318.192
4195.49	315.188
4195.83	341.184
4196.15	322.18
4196.48	318.176
4196.81	395.172
4197.14	317.168
4197.47	339.164
4197.8	353.16
4198.13	370.156
4198.46	365.152
4198.79	370.148
4199.12	317.144
4199.45	403.14
4199.78	399.136
4200.11	375.132
4200.44	363.128
4200.77	317.124
4201.1	334.12
4201.43	364.116
4201.76	351.112
4202.09	316.108
4202.42	318.104
4202.75	366.1
4203.08	334.096
4203.41	364.092
4203.74	400.088
4204.07	399.084
4204.4	365.08
4204.73	315.076
4205.05	358.072
4205.38	332.068
4205.71	334.064
4206.04	345.06
4206.37	391.056
4206.7	343.052
4207.03	378.048
4207.36	326.044
4207.69	400.04
4208.02	325.036
4208.35	330.032
4208.68	373.028
4209	381.024
4209.33	321.02
4209.66	324.016
4209.99	353.012
4210.32	342.008
4210.65	327.004
4210.98	316
4211.31	321.996
4211.64	317.992
4211.96	338.988
4212.29	330.984
4212.62	321.98
4212.95	368.976
4213.28	333.972
4213.61	372.968
4213.94	393.964
4214.27	314.96
4214.6	371.956
4214.92	379.952
4215.25	314.948
4215.58	361.944
4215.91	312.94
4216.24	315.936
4216.57	315.932
4216.9	340.928
4217.22	321.924
4217.55	380.92
4217.88	344.916
4218.21	335.912
4218.54	320.908
4218.87	376.904
4219.19	369.9
4219.52	353.896
4219.85	327.892
4220.18	318.888
4220.51	397.884
4220.83	341.88
4221.16	356.876
4221.49	314.872
4221.82	356.868
4222.15	369.864
4222.48	367.86
4222.8	317.856
4223.13	336.852
4223.46	354.848
4223.79	315.844
4224.12	334.84
4224.44	335.836
4224.77	349.832
4225.1	331.829
4225.43	312.825
4225.75	331.821
4226.08	385.817
4226.41	314.813
4226.74	316.809
4227.07	378.805
4227.39	311.801
4227.72	366.797
4228.05	393.793
4228.38	366.789
4228.71	357.785
4229.03	344.781
4229.36	357.777
4229.69	331.773
4230.01	310.769
4230.34	331.765
4230.67	348.761
4231	375.757
4231.32	317.753
4231.65	345.749
4231.98	334.745
4232.31	318.741
4232.63	345.737
4232.96	312.733
4233.29	333.729
4233.62	361.725
4233.94	347.721
4234.27	349.717
4234.6	354.713
4234.92	348.709
4235.25	354.705
4235.58	375.701
4235.91	315.697
4236.23	329.693
4236.56	324.689
4236.89	331.685
4237.21	329.681
4237.54	344.677
4237.87	310.673
4238.2	342.669
4238.52	325.665
4238.85	383.661
4239.18	344.657
4239.5	375.653
4239.83	310.649
4240.16	318.645
4240.48	364.641
4240.81	325.637
4241.14	313.633
4241.46	313.629
4241.79	362.625
4242.12	372.621
4242.44	380.617
4242.77	353.613
4243.1	320.609
4243.42	388.605
4243.75	348.601
4244.08	327.597
4244.4	374.593
4244.73	320.589
4245.06	369.585
4245.38	315.581
4245.71	311.577
4246.04	382.573
4246.36	336.569
4246.69	324.565
4247.01	372.561
4247.34	318.557
4247.67	364.553
4247.99	340.549
4248.32	344.545
4248.64	314.541
4248.97	325.537
4249.3	328.533
4249.62	346.529
4249.95	333.525
4250.27	323.521
4250.6	345.517
4250.93	358.513
4251.25	340.509
4251.58	332.505
4251.91	331.501
4252.23	309.497
4252.56	342.493
4252.88	329.489
4253.21	382.485
4253.54	320.481
4253.86	317.477
4254.19	323.473
4254.51	338.469
4254.84	339.465
4255.16	379.461
4255.49	327.457
4255.81	321.453
4256.14	364.45
4256.47	330.446
4256.79	318.442
4257.12	316.438
4257.44	344.434
4257.77	383.43
4258.09	322.426
4258.42	331.422
4258.74	323.418
4259.07	368.414
4259.4	355.41
4259.72	337.406
4260.05	324.402
4260.37	325.398
4260.7	329.394
4261.02	338.39
4261.35	318.386
4261.67	388.382
4262	341.378
4262.32	386.374
4262.65	327.37
4262.97	335.366
4263.3	330.362
4263.62	316.358
4263.95	371.354
4264.27	312.35
4264.6	368.346
4264.92	370.342
4265.25	327.338
4265.57	326.334
4265.9	313.33
4266.22	331.326
4266.55	311.322
4266.87	320.318
4267.2	320.314
4267.52	310.31
4267.85	343.306
4268.17	312.302
4268.5	309.298
4268.82	315.294
4269.15	372.29
4269.47	334.286
4269.8	340.282
4270.12	367.278
4270.45	311.274
4270.77	384.27
4271.09	356.266
4271.42	363.262
4271.74	309.258
4272.07	318.254
4272.39	337.25
4272.72	361.246
4273.04	312.242
4273.37	345.238
4273.69	323.234
4274.01	331.23
4274.34	325.226
4274.66	366.222
4274.99	308.218
4275.31	373.214
4275.63	323.21
4275.96	329.206
4276.28	339.202
4276.61	357.198
4276.93	339.194
4277.26	384.19
4277.58	334.186
4277.9	312.182
4278.23	385.178
4278.55	358.174
4278.88	363.17
4279.2	331.166
4279.52	330.162
4279.85	384.158
4280.17	316.154
4280.5	368.15
4280.82	395.146
4281.14	308.142
4281.47	319.138
4281.79	403.134
4282.12	323.13
4282.44	331.126
4282.76	332.122
4283.09	367.118
4283.41	357.114
4283.73	381.11
4284.06	341.106
4284.38	323.102
4284.7	349.098
4285.03	309.094
4285.35	323.09
4285.67	322.086
4286	328.082
4286.32	355.078
4286.64	335.074
4286.97	342.071
4287.29	385.067
4287.61	335.063
4287.94	315.059
4288.26	327.055
4288.58	330.051
4288.91	322.047
4289.23	324.043
4289.55	373.039
4289.88	311.035
4290.2	320.031
4290.52	361.027
4290.85	377.023
4291.17	346.019
4291.49	313.015
4291.82	350.011
4292.14	349.007
4292.46	318.003
4292.78	386.999
4293.11	319.995
4293.43	334.991
4293.75	312.987
4294.08	352.983
4294.4	333.979
4294.72	351.975
4295.04	374.971
4295.37	360.967
4295.69	355.963
4296.01	312.959
4296.34	308.955
4296.66	306.951
4296.98	322.947
4297.3	349.943
4297.63	341.939
4297.95	318.935
4298.27	369.931
4298.59	333.927
4298.92	338.923
4299.24	324.919
4299.56	376.915
4299.88	323.911
4300.21	400.907
4300.53	346.903
4300.85	347.899
4301.17	355.895
4301.5	321.891
4301.82	320.887
4302.14	371.883
4302.46	336.879
4302.78	311.875
4303.11	365.871
4303.43	320.867
4303.75	338.863
4304.07	372.859
4304.4	318.855
4304.72	360.851
4305.04	348.847
4305.36	319.843
4305.68	321.839
4306.01	371.835
4306.33	308.831
4306.65	336.827
4306.97	319.823
4307.29	330.819
4307.62	400.815
4307.94	308.811
4308.26	325.807
4308.58	314.803
4308.9	399.799
4309.22	354.795
4309.55	307.791
4309.87	386.787
4310.19	391.783
4310.51	393.779
4310.83	326.775
4311.15	335.771
4311.48	346.767
4311.8	350.763
4312.12	309.759
4312.44	317.755
4312.76	307.751
4313.08	366.747
4313.41	350.743
4313.73	336.739
4314.05	308.735
4314.37	350.731
4314.69	305.727
4315.01	340.723
4315.33	345.719
4315.66	366.715
4315.98	356.711
4316.3	314.707
4316.62	345.703
4316.94	306.699
4317.26	338.695
4317.58	313.692
4317.9	323.688
4318.23	338.684
4318.55	309.68
4318.87	307.676
4319.19	317.672
4319.51	346.668
4319.83	336.664
4320.15	366.66
4320.47	358.656
4320.79	347.652
4321.11	341.648
4321.43	351.644
4321.76	382.64
4322.08	378.636
4322.4	399.632
4322.72	344.628
4323.04	320.624
4323.36	373.62
4323.68	312.616
4324	389.612
4324.32	328.608
4324.64	306.604
4324.96	355.6
4325.28	342.596
4325.6	354.592
4325.92	309.588
4326.24	335.584
4326.56	322.58
4326.89	314.576
4327.21	354.572
4327.53	334.568
4327.85	342.564
4328.17	376.56
4328.49	371.556
4328.81	344.552
4329.13	330.548
4329.45	309.544
4329.77	335.54
4330.09	315.536
4330.41	349.532
4330.73	351.528
4331.05	314.524
4331.37	312.52
4331.69	329.516
4332.01	330.512
4332.33	347.508
4332.65	343.504
4332.97	318.5
4333.29	343.496
4333.61	327.492
4333.93	336.488
4334.25	383.484
4334.57	349.48
4334.89	310.476
4335.21	347.472
4335.53	322.468
4335.85	395.464
4336.17	322.46
4336.49	386.456
4336.81	325.452
4337.13	323.448
4337.45	330.444
4337.77	366.44
4338.09	377.436
4338.41	327.432
4338.73	333.428
4339.05	307.424
4339.37	363.42
4339.69	345.416
4340.01	309.412
4340.32	336.408
4340.64	318.404
4340.96	339.4
4341.28	369.396
4341.6	371.392
4341.92	313.388
4342.24	351.384
4342.56	313.38
4342.88	347.376
4343.2	335.372
4343.52	305.368
4343.84	322.364
4344.16	354.36
4344.48	343.356
4344.79	318.352
4345.11	321.348
4345.43	383.344
4345.75	327.34
4346.07	357.336
4346.39	357.332
4346.71	373.328
4347.03	368.324
4347.35	340.32
4347.67	306.317
4347.98	324.313
4348.3	306.309
4348.62	335.305
4348.94	321.301
4349.26	345.297
4349.58	330.293
4349.9	339.289
4350.22	358.285
4350.54	347.281
4350.85	347.277
4351.17	307.273
4351.49	347.269
4351.81	351.265
4352.13	319.261
4352.45	391.257
4352.77	338.253
4353.09	325.249
4353.4	305.245
4353.72	325.241
4354.04	361.237
4354.36	306.233
4354.68	337.229
4355	306.225
4355.31	336.221
4355.63	365.217
4355.95	316.213
4356.27	312.209
4356.59	334.205
4356.91	347.201
4357.22	350.197
4357.54	324.193
4357.86	384.189
4358.18	327.185
4358.5	319.181
4358.81	312.177
4359.13	313.173
4359.45	368.169
4359.77	364.165
4360.09	327.161
4360.4	316.157
4360.72	306.153
4361.04	311.149
4361.36	324.145
4361.68	339.141
4361.99	310.137
4362.31	362.133
4362.63	326.129
4362.95	323.125
4363.27	319.121
4363.58	361.117
4363.9	378.113
4364.22	335.109
4364.54	322.105
4364.85	357.101
4365.17	307.097
4365.49	308.093
4365.81	314.089
4366.13	314.085
4366.44	332.081
4366.76	374.077
4367.08	317.073
4367.4	307.069
4367.71	310.065
4368.03	333.061
4368.35	343.057
4368.67	320.053
4368.98	331.049
4369.3	316.045
4369.62	334.041
4369.94	381.037
4370.25	321.033
4370.57	308.029
4370.89	351.025
4371.2	305.021
4371.52	307.017
4371.84	345.013
4372.16	321.009
4372.47	341.005
4372.79	311.02
4373.11	323.034
4373.42	314.048
4373.74	359.063
4374.06	368.077
4374.38	312.091
4374.69	357.106
4375.01	304.12
4375.33	331.135
4375.64	364.149
4375.96	324.163
4376.28	336.178
4376.59	323.192
4376.91	360.206
4377.23	304.221
4377.54	379.235
4377.86	383.249
4378.18	392.264
4378.49	304.278
4378.81	309.292
4379.13	312.307
4379.44	368.321
4379.76	332.335
4380.08	349.35
4380.39	393.364
4380.71	312.379
4381.03	313.393
4381.34	306.407
4381.66	335.422
4381.98	305.436
4382.29	314.45
4382.61	306.465
4382.92	311.479
4383.24	341.493
4383.56	344.508
4383.87	318.522
4384.19	346.536
4384.51	307.551
4384.82	330.565
4385.14	340.579
4385.46	331.594
4385.77	349.608
4386.09	303.623
4386.4	335.637
4386.72	335.651
4387.04	364.666
4387.35	355.68
4387.67	311.694
4387.98	380.709
4388.3	341.723
4388.62	394.737
4388.93	344.752
4389.25	350.766
4389.56	338.78
4389.88	306.795
4390.2	355.809
4390.51	318.823
4390.83	370.838
4391.14	327.852
4391.46	348.867
4391.77	338.881
4392.09	356.895
4392.4	310.91
4392.72	313.924
4393.04	316.938
4393.35	348.953
4393.67	368.967
4393.98	305.981
4394.3	347.996
4394.61	353.01
4394.93	346.024
4395.25	322.039
4395.56	367.053
4395.88	323.067
4396.19	369.082
4396.51	378.096
4396.82	335.111
4397.14	369.125
4397.45	373.139
4397.77	381.154
4398.08	342.168
4398.4	336.182
4398.71	316.197
4399.03	325.211
4399.34	322.225
4399.66	311.24
4399.97	319.254
4400.29	334.268
4400.6	311.283
4400.92	320.297
4401.23	375.311
4401.55	313.326
4401.86	361.34
4402.18	371.355
4402.5	368.369
4402.81	322.383
4403.13	345.398
4403.44	315.412
4403.75	317.426
4404.07	311.441
4404.38	334.455
4404.7	314.469
4405.01	363.484
4405.33	345.498
4405.64	329.512
4405.96	378.527
4406.27	345.541
4406.59	353.555
4406.9	312.57
4407.22	317.584
4407.53	304.599
4407.84	313.613
4408.16	312.627
4408.47	360.642
4408.79	320.656
4409.1	353.67
4409.42	354.685
4409.73	304.699
4410.05	329.713
4410.36	313.728
4410.67	360.742
4410.99	377.756
4411.3	361.771
4411.62	312.785
4411.93	324.799
4412.25	342.814
4412.56	362.828
4412.87	308.843
4413.19	352.857
4413.5	321.871
4413.82	349.886
4414.13	308.9
4414.44	339.914
4414.76	329.929
4415.07	317.943
4415.39	333.957
4415.7	373.972
4416.01	369.986
4416.33	369
4416.64	363.015
4416.96	331.029
4417.27	353.043
4417.58	320.058
4417.9	330.072
4418.21	346.087
4418.52	304.101
4418.84	347.115
4419.15	332.13
4419.47	358.144
4419.78	328.158
4420.09	367.173
4420.41	322.187
4420.72	331.201
4421.03	311.483
4421.35	306.7
4421.66	376.056
4421.97	345.825
4422.29	391.444
4422.6	349.524
4422.91	325.402
4423.23	352.996
4423.54	328.361
4423.85	337.855
4424.17	327.611
4424.48	311.509
4424.8	340.426
4425.11	349.884
4425.42	359.403
4425.73	336.868
4426.05	332.672
4426.36	326.643
4426.67	327.743
4426.99	359.125
4427.3	339.178
4427.61	360.906
4427.93	354.398
4428.24	353.128
4428.55	349.151
4428.87	320.105
4429.18	339.375
4429.49	351.152
4429.8	323.328
4430.12	345.257
4430.43	327.315
4430.74	318.214
4431.06	319.618
4431.37	329.684
4431.68	347.283
4431.99	334.76
4432.31	328.615
4432.62	342.827
4432.93	335.515
4433.25	320.813
4433.56	318.848
4433.87	352.831
4434.18	327.98
4434.49	368.202
4434.81	316.966
4435.12	351.596
4435.43	324.591
4435.75	329.676
4436.06	325.288
4436.37	367.467
4436.68	341.107
4437	357.989
4437.31	328.37
4437.62	344.092
4437.93	322.043
4438.24	373.47
4438.56	354.003
4438.87	326.516
4439.18	346.841
4439.49	341.099
4439.81	329.997
4440.12	335.368
4440.43	351.421
4440.74	330.858
4441.05	352.123
4441.37	353.671
4441.68	367.707
4441.99	332.058
4442.3	320.094
4442.61	341.546
4442.93	354.349
4443.24	331.411
4443.55	335.683
4443.86	327.485
4444.17	336.415
4444.49	339.238
4444.8	359.509
4445.11	350.887
4445.42	335.645
4445.73	340.664
4446.04	347.699
4446.35	327.885
4446.67	322.74
4446.98	316.17
4447.29	324.844
4447.6	352.881
4447.91	363.644
4448.22	330.743
4448.54	338.569
4448.85	349.775
4449.16	320.699
4449.47	338.907
4449.78	321.113
4450.09	312.351
4450.41	322.134
4450.72	330.157
4451.03	320.511
4451.34	362.29
4451.59	345.081
4451.9	333.055
4452.22	359.028
4452.53	351.001
4452.85	312.975
4453.17	363.948
4453.48	329.922
4453.8	380.896
4454.11	324.869
4454.43	359.842
4454.75	308.816
4455.06	368.789
4455.38	313.763
4455.7	328.737
4456.01	365.71
4456.33	358.684
4456.64	310.657
4456.96	372.63
4457.27	335.604
4457.59	326.578
4457.91	306.551
4458.22	380.525
4458.54	337.498
4458.85	349.471
4459.17	333.445
4459.48	310.418
4459.8	368.392
4460.11	305.366
4460.43	326.339
4460.75	314.313
4461.06	340.286
4461.38	367.259
4461.69	331.233
4462.01	357.207
4462.32	324.18
4462.64	365.154
4462.95	326.127
4463.27	310.1
4463.59	358.074
4463.9	381.047
4464.22	359.021
4464.53	304.995
4464.85	338.968
4465.16	365.941
4465.48	348.915
4465.79	339.888
4466.11	375.862
4466.42	365.836
4466.74	339.809
4467.05	317.783
4467.37	327.756
4467.68	348.729
4468	333.703
4468.31	341.677
4468.63	365.65
4468.94	347.624
4469.26	382.597
4469.57	343.57
4469.89	317.544
4470.2	314.517
4470.52	311.491
4470.83	354.465
4471.15	320.438
4471.46	309.411
4471.78	336.385
4472.09	333.358
4472.4	307.332
4472.72	321.306
4473.03	331.279
4473.35	320.253
4473.66	305.226
4473.98	376.199
4474.29	314.173
4474.61	323.147
4474.92	355.12
4475.24	370.094
4475.55	354.067
4475.87	315.04
4476.18	323.014
4476.49	304.987
4476.81	305.961
4477.12	319.935
4477.44	333.908
4477.75	348.882
4478.07	306.855
4478.38	357.828
4478.69	334.802
4479.01	340.776
4479.32	323.749
4479.64	303.723
4479.95	305.696
4480.26	326.669
4480.58	336.643
4480.89	304.616
4481.21	359.59
4481.52	335.564
4481.83	377.537
4482.15	310.51
4482.46	330.484
4482.78	307.457
4483.09	316.431
4483.41	313.405
4483.72	331.378
4484.03	338.352
4484.35	303.325
4484.66	307.298
4484.97	327.272
4485.29	315.246
4485.6	348.219
4485.92	355.193
4486.23	398.166
4486.54	382.139
4486.86	329.113
4487.17	328.086
4487.48	304.06
4487.8	357.034
4488.11	308.007
4488.42	321.98
4488.74	332.954
4489.05	301.927
4489.37	315.901
4489.68	351.875
4489.99	320.848
4490.31	309.822
4490.62	340.795
4490.93	349.768
4491.25	310.742
4491.56	307.716
4491.87	308.689
4492.19	338.663
4492.5	340.636
4492.81	366.609
4493.12	313.583
4493.44	310.556
4493.75	324.53
4494.06	341.504
4494.38	301.477
4494.69	357.451
4495	303.424
4495.32	318.397
4495.63	305.371
4495.94	351.345
4496.26	338.318
4496.57	344.292
4496.88	322.265
4497.2	378.238
4497.51	344.212
4497.82	320.185
4498.13	381.159
4498.45	332.133
4498.76	318.106
4499.07	330.079
4499.38	326.053
4499.7	310.026
