#Acq. time (s)=	0.1
#Accumulations=	3
#Range (cm-¹)=	0...3000
#Windows=	7
#Autofocus=	Off
#AutoExposure=	Off
#Spike filter=	Multiple accum.
#Delay time (s)=	0
#Binning=	1
#Readout mode=	Signal
#DeNoise=	Off
#ICS correction=	Off
#Dark correction=	Off
#Inst. Process=	Off
#Instrument=	LabRAM HR Evol
#Detector=	Emulator CCD
#Objective=	x100
#Grating=	1800 gr/mm
#ND Filter=	100%
#Laser (nm)=	512 
#Slit=	150.001
#Hole=	70.0087
#Project=	A
#Sample=	B
#Site=	C
#Title=	D_91
#Remark=	
#Date=	18.10.2017 15:40
#Acquired=	18.10.2017 15:40:26
0.232828	363
0.833498	365.005
1.43646	337.011
2.03706	317.516
2.63761	331.021
3.23814	318.026
3.83862	313.032
4.4414	332.537
5.04181	304.042
5.64218	337.047
6.24252	339.553
6.84282	329.558
7.44541	365.063
8.04564	380.069
8.64583	379.074
9.24598	313.079
9.8461	330.084
10.4462	336.59
11.0462	331.595
11.6486	348.6
12.2485	321.106
12.8485	306.611
13.4483	336.116
14.0482	350.621
14.648	342.127
15.2478	323.132
15.8476	321.637
16.4473	350.643
17.0493	329.648
17.6489	337.653
18.2485	343.658
18.8481	361.164
19.4476	309.169
20.0471	362.674
20.6465	334.179
21.2459	334.185
21.8453	351.19
22.4447	380.695
23.044	316.201
23.6432	311.706
24.2425	331.711
24.8417	351.216
25.4408	319.222
26.0399	328.227
26.639	385.732
27.2381	349.738
27.8371	320.743
28.4361	344.748
29.035	327.753
29.6339	373.259
30.2328	328.264
30.8316	357.269
31.4304	330.274
32.0291	313.28
32.6278	317.285
33.2265	337.79
33.8252	317.296
34.4238	319.301
35.0223	364.306
35.6209	363.311
36.217	346.317
36.8155	311.322
37.4139	300.327
38.0123	338.333
38.6107	329.838
39.209	307.343
39.8072	376.348
40.4055	354.854
41.0037	336.359
41.5995	344.864
42.1977	301.369
42.7958	333.875
43.3938	300.38
43.9918	340.385
44.5898	328.391
45.1878	312.396
45.7833	321.401
46.3812	328.406
46.9791	340.912
47.5769	367.917
48.1746	325.422
48.77	313.428
49.3677	339.433
49.9654	361.938
50.563	329.443
51.1606	351.949
51.7558	346.454
52.3533	369.959
52.9508	348.464
53.5482	340.47
54.1433	329.475
54.7406	318.48
55.3379	305.486
55.9352	337.991
56.5302	321.996
57.1274	301.501
57.7246	321.507
58.3194	343.512
58.9165	344.517
59.5135	342.023
60.1106	307.028
60.7053	336.533
61.3022	316.538
61.8991	309.044
62.4937	310.049
63.0906	328.554
63.6874	330.559
64.2818	347.565
64.8786	316.57
65.4753	351.575
66.0696	355.581
66.6662	318.586
67.2628	360.591
67.8571	319.596
68.4536	319.602
69.0478	319.607
69.6442	342.612
70.2406	318.618
70.8347	319.623
71.431	364.628
72.025	345.633
72.6213	345.139
73.2175	338.144
73.8114	333.649
74.4075	305.655
75.0013	326.16
75.5974	361.665
76.1911	334.17
76.7871	316.676
77.3831	326.681
77.9767	302.686
78.5726	367.191
79.1662	356.697
79.762	319.702
80.3555	337.707
80.9512	313.713
81.5447	316.218
82.1403	337.723
82.7337	312.728
83.3293	311.734
83.9225	346.739
84.5181	333.744
85.1113	316.249
85.7067	304.755
86.2998	348.76
86.8929	344.765
87.4883	320.771
88.0813	351.776
88.6766	317.781
89.2695	342.286
89.8647	315.292
90.4576	382.797
91.0504	339.802
91.6455	346.808
92.2382	323.813
92.8333	355.318
93.4259	311.823
94.0186	335.829
94.6135	333.334
95.2061	325.839
95.8009	362.845
96.3934	348.35
96.9859	341.855
97.5806	337.86
98.173	320.866
98.7654	308.371
99.36	315.376
99.9523	318.881
100.545	350.387
101.139	344.892
101.731	315.897
102.323	302.903
102.918	308.908
103.51	386.913
104.102	319.418
104.696	317.424
105.288	314.929
105.88	364.934
106.472	347.94
107.066	349.445
107.658	331.95
108.25	335.955
108.841	324.461
109.435	318.966
110.027	335.971
110.619	336.976
111.21	360.982
111.804	328.987
112.396	349.492
112.987	371.998
113.579	324.003
114.17	334.008
114.764	311.513
115.355	342.019
115.946	335.524
116.538	341.029
117.129	346.035
117.722	321.04
118.314	333.045
118.905	347.05
119.496	308.556
120.087	343.061
120.678	331.066
121.271	336.071
121.862	319.077
122.453	325.082
123.044	344.587
123.635	320.093
124.226	312.098
124.816	336.103
125.407	308.608
125.998	307.114
126.591	315.619
127.181	352.124
127.772	343.13
128.362	327.135
128.953	341.14
129.543	317.145
130.134	311.151
130.724	315.656
131.315	361.161
131.905	321.666
132.495	323.172
133.086	334.177
133.676	316.182
134.266	352.688
134.856	358.693
135.446	305.198
136.036	337.703
136.626	328.209
137.216	341.214
137.806	338.219
138.396	344.225
138.986	310.73
139.576	385.735
140.166	312.24
140.756	344.746
141.346	308.251
141.935	317.256
142.525	309.261
143.115	323.267
143.704	322.272
144.294	324.777
144.883	304.283
145.471	365.288
146.06	328.293
146.65	336.298
147.239	328.804
147.828	356.809
148.418	386.814
149.007	349.32
149.596	340.825
150.185	308.33
150.772	328.335
151.361	343.341
151.951	337.346
152.54	336.351
153.129	357.857
153.718	335.362
154.304	326.367
154.893	331.372
155.482	310.378
156.071	313.883
156.66	311.888
157.249	325.393
157.835	341.399
158.424	349.904
159.013	349.409
159.601	303.415
160.188	316.42
160.776	323.925
161.365	333.43
161.953	307.436
162.542	316.941
163.128	366.946
163.716	345.451
164.305	321.457
164.891	316.962
165.479	321.467
166.067	338.973
166.655	310.478
167.241	312.483
167.83	335.488
168.418	307.494
169.003	325.999
169.591	357.004
170.18	301.51
170.765	333.015
171.353	342.02
171.941	306.025
172.527	327.531
173.114	354.536
173.702	331.041
174.288	319.547
174.875	310.552
175.463	310.557
176.049	308.562
176.636	311.568
177.221	334.573
177.809	345.078
178.396	315.583
178.982	341.589
179.569	343.094
180.154	323.599
180.742	340.105
181.329	366.61
181.914	329.115
182.501	343.62
183.086	308.626
183.673	306.631
184.258	321.636
184.845	352.642
185.43	315.647
186.017	330.652
186.604	328.157
187.189	302.663
187.776	306.668
188.36	320.173
188.947	376.678
189.532	352.184
190.119	320.189
190.703	367.694
191.29	304.2
191.874	337.705
192.459	311.71
193.045	306.715
193.63	319.221
194.216	346.726
194.8	311.231
195.387	345.237
195.971	317.242
196.557	326.747
197.142	330.752
197.726	311.758
198.312	334.263
198.896	317.768
199.482	347.773
200.066	306.779
200.65	309.284
201.236	359.789
201.82	344.795
202.406	351.8
202.99	369.805
203.573	348.81
204.159	316.316
204.743	342.821
205.327	375.826
205.912	313.832
206.496	352.837
207.079	347.842
207.665	316.847
208.249	346.853
208.832	339.858
209.418	343.863
210.001	309.868
210.584	335.374
211.167	319.879
211.753	332.884
212.336	332.89
212.919	320.895
213.505	359.9
214.088	315.905
214.671	346.411
215.254	328.916
215.839	350.921
216.422	347.927
217.005	335.432
217.588	334.437
218.17	354.942
218.755	332.948
219.338	324.953
219.921	305.958
220.504	348.463
221.086	332.969
221.671	352.974
222.254	307.979
222.836	325.985
223.419	330.99
224.001	327.495
224.586	327.5
225.168	341.006
225.751	368.511
226.333	337.016
226.915	313.022
227.498	323.027
228.08	307.032
228.662	355.037
229.246	333.043
229.829	325.548
230.411	325.053
230.993	303.059
231.575	327.064
232.157	318.069
232.739	306.574
233.321	317.08
233.902	308.585
234.484	314.09
235.066	360.095
235.648	368.101
236.23	345.606
236.814	338.111
237.395	328.117
237.977	340.122
238.558	316.627
239.14	325.132
239.721	303.138
240.303	339.643
240.884	347.148
241.466	344.653
242.047	329.159
242.629	352.164
243.21	330.169
243.791	360.675
244.372	342.68
244.951	366.185
245.533	363.69
246.114	323.196
246.695	329.201
247.276	302.206
247.857	347.212
248.438	368.717
249.019	388.722
249.6	344.227
250.181	375.733
250.761	352.738
251.342	338.743
251.923	341.249
252.502	311.254
253.082	315.259
253.663	393.764
254.244	318.27
254.824	322.275
255.405	349.78
255.985	347.785
256.566	321.291
257.144	361.296
257.725	324.301
258.305	336.307
258.885	338.312
259.466	327.317
260.044	334.822
260.624	308.328
261.204	338.333
261.784	334.338
262.365	343.844
262.942	323.349
263.522	311.354
264.102	326.359
264.682	394.865
265.262	363.37
265.84	304.375
266.42	312.88
267	315.386
267.578	328.391
268.157	305.396
268.737	371.402
269.317	323.407
269.894	330.412
270.474	354.417
271.054	315.923
271.633	302.928
272.211	346.433
272.79	362.439
273.37	324.444
273.947	325.949
274.526	360.454
275.106	322.96
275.683	348.465
276.262	306.47
276.841	363.475
277.418	305.481
277.997	326.986
278.574	354.491
279.154	340.497
279.733	340.502
280.309	313.507
280.888	387.512
281.465	365.518
282.044	322.523
282.623	344.028
283.2	309.534
283.779	336.539
284.355	330.544
284.934	351.549
285.513	318.555
286.089	343.56
286.668	317.065
287.244	326.07
287.823	367.076
288.399	342.081
288.978	308.586
289.554	302.592
290.133	385.097
290.709	313.602
291.287	360.107
291.863	337.113
292.442	336.618
293.018	334.123
293.596	337.629
294.172	342.134
294.75	317.639
295.326	343.644
295.904	324.65
296.48	367.655
297.058	318.66
297.634	328.665
298.21	354.171
298.788	347.676
299.363	307.681
299.941	318.687
300.517	318.692
301.092	360.197
301.67	329.702
302.246	322.208
302.823	352.713
303.399	309.718
303.974	358.724
304.552	321.229
305.127	356.734
305.705	303.739
306.28	325.745
306.855	343.75
307.433	327.255
308.008	310.76
308.583	324.766
309.16	302.771
309.735	317.776
310.31	343.782
310.888	325.787
311.463	368.792
312.038	333.797
312.612	313.803
313.19	341.808
313.764	353.813
314.339	329.319
314.914	339.324
315.491	337.329
316.065	312.834
316.64	354.84
317.217	316.345
317.792	364.85
318.366	321.355
318.941	316.861
319.515	344.866
320.092	343.371
320.666	349.377
321.241	321.382
321.815	357.887
322.389	327.892
322.966	371.898
323.54	342.403
324.114	334.908
324.688	328.414
325.262	355.919
325.836	348.924
326.413	308.929
326.987	315.435
327.561	304.94
328.135	388.445
328.709	302.951
329.283	392.956
329.856	336.461
330.432	356.966
331.006	351.472
331.58	320.977
332.154	327.982
332.727	338.487
333.301	329.993
333.875	351.998
334.448	329.503
335.022	347.009
335.595	313.514
336.169	305.019
336.742	361.024
337.316	337.03
337.889	373.535
338.462	385.54
339.036	353.046
339.609	357.551
340.182	341.056
340.755	309.061
341.328	326.067
341.902	331.072
342.475	307.077
343.048	306.582
343.621	353.088
344.194	335.593
344.767	356.098
345.34	354.604
345.913	325.109
346.485	352.114
347.058	341.619
347.631	330.125
348.204	360.13
348.776	317.135
349.349	327.641
349.922	329.146
350.494	352.151
351.067	308.156
351.637	364.662
352.21	341.667
352.782	317.172
353.355	357.177
353.927	327.183
354.5	324.188
355.072	322.693
355.644	322.199
356.214	324.204
356.786	320.209
357.359	315.214
357.931	315.22
358.503	356.725
359.075	356.23
359.645	324.236
360.217	303.241
360.789	342.246
361.361	373.751
361.933	368.757
362.503	333.762
363.074	322.267
363.646	341.772
364.218	324.278
364.788	338.283
365.359	346.288
365.931	321.294
366.503	350.299
367.072	310.304
367.644	339.309
368.215	358.815
368.787	357.82
369.356	327.325
369.927	353.331
370.499	314.836
371.068	305.341
371.639	342.846
372.211	340.852
372.78	324.857
373.351	357.362
373.922	344.367
374.491	349.873
375.062	334.878
375.633	339.883
376.202	336.389
376.773	328.894
377.344	353.899
377.913	305.404
378.484	332.41
379.055	372.415
379.624	331.42
380.194	316.926
380.763	315.431
381.334	336.436
381.905	331.441
382.473	369.447
383.044	336.452
383.612	365.957
384.183	323.462
384.751	318.468
385.322	358.973
385.89	345.478
386.46	328.984
387.031	371.489
387.599	377.994
388.169	378.499
388.737	321.505
389.308	379.51
389.876	326.015
390.446	343.521
391.014	323.526
391.584	313.531
392.152	317.036
392.722	361.542
393.29	317.047
393.858	373.052
394.428	338.557
394.995	326.563
395.565	329.068
396.133	310.573
396.703	369.079
397.27	363.584
397.838	328.589
398.408	311.594
398.975	343.6
399.545	344.605
400.112	329.61
400.682	342.116
401.249	318.621
401.817	328.126
402.386	356.131
402.953	339.137
403.521	365.642
404.09	336.647
404.657	341.652
405.224	308.158
405.794	310.663
406.361	329.668
406.928	310.674
407.497	350.179
408.064	318.684
408.631	336.689
409.2	357.695
409.767	357.7
410.334	343.705
410.903	344.211
411.469	335.716
412.036	316.221
412.603	348.726
413.172	351.732
413.738	351.237
414.305	315.242
414.871	310.747
415.44	361.253
416.007	307.758
416.573	320.763
417.14	306.769
417.706	335.774
418.275	334.779
418.841	328.784
419.407	338.29
419.973	364.795
420.54	326.8
421.108	331.806
421.674	330.311
422.24	303.816
422.806	336.821
423.372	335.827
423.938	335.832
424.507	359.837
425.073	329.842
425.638	317.848
426.204	380.353
426.77	320.358
427.336	326.364
427.902	320.369
428.467	329.874
429.033	315.879
429.601	333.385
430.167	330.89
430.732	313.895
431.298	323.901
431.863	317.906
432.429	351.411
432.994	365.416
433.56	304.922
434.125	324.927
434.691	349.432
435.256	330.938
435.821	361.943
436.387	332.448
436.952	338.953
437.517	344.959
438.082	343.964
438.647	338.469
439.212	350.974
439.778	358.48
440.343	353.485
440.908	343.99
441.473	315.496
442.038	359.501
442.602	337.506
443.167	315.011
443.732	332.017
444.297	304.022
444.862	371.527
445.426	348.533
445.989	322.038
446.554	337.043
447.118	347.548
447.683	327.054
448.247	340.559
448.812	334.064
449.376	319.069
449.941	324.575
450.505	340.08
451.068	335.085
451.632	319.091
452.196	361.096
452.761	331.101
453.325	364.106
453.889	315.112
454.451	332.617
455.015	306.122
455.579	377.628
456.144	366.633
456.708	360.138
457.269	349.143
457.833	319.149
458.397	309.654
458.961	336.659
459.525	323.164
460.087	399.67
460.651	350.675
461.215	341.68
461.778	364.186
462.34	312.191
462.904	338.696
463.467	367.201
464.031	361.707
464.592	379.712
465.156	312.717
465.719	325.223
466.281	331.728
466.844	340.733
467.408	315.238
467.969	339.244
468.532	317.249
469.095	372.254
469.657	339.759
470.22	380.265
470.783	306.27
471.344	317.275
471.907	313.281
472.47	318.286
473.031	348.791
473.594	320.296
474.155	370.302
474.718	324.307
475.281	365.812
475.842	321.318
476.405	358.823
476.965	318.328
477.528	335.333
478.091	326.339
478.652	329.844
479.214	315.849
479.775	337.854
480.338	329.86
480.898	314.365
481.461	332.37
482.021	319.376
482.583	326.881
483.144	366.886
483.706	345.391
484.266	330.397
484.829	312.902
485.389	371.907
485.951	351.913
486.511	339.418
487.074	346.423
487.634	307.428
488.196	333.434
488.756	305.439
489.318	331.444
489.878	331.449
490.44	354.455
491	305.46
491.56	346.465
492.122	336.471
492.681	329.476
493.243	385.481
493.803	305.486
494.365	344.492
494.924	319.497
495.484	352.502
496.046	332.508
496.605	338.513
497.165	320.518
497.726	366.523
498.286	369.029
498.845	351.534
499.407	389.539
499.966	351.044
500.525	309.55
501.087	348.055
501.646	351.56
502.205	315.066
502.767	329.071
503.326	317.576
503.885	309.581
504.446	353.587
505.005	342.592
505.564	383.097
506.123	329.603
506.684	357.608
507.243	341.613
507.802	327.618
508.361	352.124
508.922	352.629
509.48	329.634
510.039	330.639
510.598	350.645
511.159	340.65
511.717	353.655
512.276	365.161
512.834	313.666
513.393	309.671
513.953	371.676
514.512	335.682
515.07	304.687
515.629	328.692
516.187	312.698
516.745	365.203
517.306	346.708
517.864	334.213
518.422	339.719
518.981	316.724
519.539	357.729
520.097	309.234
520.655	347.24
521.213	360.745
521.773	341.25
522.331	313.756
522.889	313.761
523.447	370.266
524.005	319.771
524.563	316.777
525.121	345.782
525.678	341.287
526.236	351.793
526.794	367.798
527.352	312.803
527.909	359.308
528.467	364.814
529.025	334.819
529.582	357.824
530.14	334.83
530.697	304.835
531.255	323.34
531.812	360.845
532.37	337.399
532.927	322.992
533.484	327.014
534.042	376.618
534.599	318.307
535.156	348.198
535.713	340.812
536.27	343.942
536.828	343.21
537.385	370.341
537.942	323.331
538.499	324.07
539.056	315.267
539.611	321.355
540.167	343.826
540.724	322.193
541.281	329.603
541.838	355.642
542.395	316.249
542.952	343.078
543.508	364.152
544.063	321.641
544.62	333.116
545.176	325.581
545.733	314.413
546.29	341.073
546.846	349.444
547.4	334.343
547.957	328.652
548.513	333.166
549.07	334.967
549.626	338.91
550.18	342.145
550.737	329.042
551.293	329.64
551.849	327.977
552.403	342.696
552.959	316.971
553.516	340.155
554.072	336.702
554.626	340.138
555.182	334.409
555.738	345.242
556.294	349.895
556.847	355.192
557.403	330.692
557.959	342.117
558.513	347.477
559.069	331.186
559.625	362.128
560.18	343.008
560.734	313.862
561.29	351.044
561.845	324.196
562.399	345.334
562.954	337.764
563.508	354.453
564.063	340.414
564.619	364.29
565.172	312.415
565.728	322.213
566.283	356.259
566.836	314.807
567.392	336.565
567.945	332.2
568.5	350.288
569.053	339.222
569.608	328.839
570.163	337.328
570.716	364.576
571.271	316.654
571.824	367.635
572.379	327.989
572.932	334.89
573.487	320.353
574.04	328.412
574.595	346.241
575.148	323.729
575.703	354.288
576.255	367.986
576.81	347.956
577.363	333.774
577.917	338.468
578.47	352.94
579.024	319.08
579.577	322.213
580.131	351.407
580.684	330.1
581.238	338.154
581.791	343.717
582.343	336.639
582.897	337.444
583.45	321.243
584.004	319.264
584.556	316.825
585.111	367.82
585.663	360.705
586.215	342.357
586.769	341.92
587.321	314.504
587.873	324.767
588.022	331.914
588.58	339.918
589.139	311.421
589.697	349.925
590.258	317.929
590.816	376.933
591.374	379.936
591.933	329.44
592.491	314.444
593.051	328.947
593.61	329.951
594.168	306.955
594.726	331.958
595.284	350.962
595.842	351.466
596.402	330.469
596.96	321.973
597.518	366.477
598.076	339.98
598.634	323.984
599.192	321.988
599.75	336.992
600.307	314.495
600.867	345.999
601.425	340.003
601.983	345.506
602.541	342.51
603.098	378.014
603.656	377.017
604.213	338.021
604.771	369.525
605.328	319.528
605.886	354.532
606.443	357.536
607.001	333.039
607.558	336.043
608.115	313.547
608.675	338.051
609.232	350.054
609.789	348.058
610.347	324.062
610.904	325.065
611.461	315.069
612.018	359.073
612.575	317.076
613.132	350.58
613.689	378.084
614.246	341.087
614.801	340.591
615.358	346.095
615.915	327.098
616.472	316.602
617.028	354.606
617.585	323.109
618.142	349.613
618.699	320.117
619.255	356.121
619.812	314.124
620.369	335.128
620.925	358.632
621.482	321.135
622.038	328.639
622.593	333.143
623.149	343.146
623.705	332.65
624.262	337.154
624.818	381.157
625.374	346.661
625.931	358.665
626.487	313.168
627.041	352.172
627.597	332.176
628.153	317.68
628.71	338.683
629.266	310.187
629.822	357.191
630.376	323.694
630.932	316.198
631.487	343.202
632.043	345.205
632.599	321.209
633.153	340.213
633.709	327.716
634.265	354.22
634.82	369.224
635.374	339.227
635.93	307.231
636.485	308.235
637.041	345.238
637.594	336.242
638.15	322.246
638.706	338.75
639.261	353.753
639.814	316.757
640.37	309.261
640.925	373.264
641.478	334.268
642.034	376.272
642.589	380.775
643.144	361.779
643.697	311.283
644.253	303.286
644.808	344.29
645.361	303.294
645.916	322.297
646.469	336.301
647.024	337.305
647.579	370.309
648.132	338.312
648.687	342.816
649.241	321.32
649.794	349.323
650.349	316.827
650.902	317.331
651.456	342.334
652.011	350.338
652.564	317.842
653.118	374.345
653.671	356.849
654.226	309.353
654.78	334.356
655.333	323.36
655.887	331.364
656.439	349.868
656.994	332.871
657.546	331.875
658.101	359.879
658.653	328.382
659.207	358.386
659.759	331.89
660.313	310.393
660.865	344.397
661.42	345.401
661.972	316.404
662.526	306.408
663.078	338.412
663.632	351.915
664.184	337.919
664.738	340.423
665.289	332.927
665.843	323.93
666.395	319.434
666.949	343.438
667.501	351.941
668.052	337.945
668.606	304.449
669.158	327.952
669.711	312.956
670.263	318.96
670.817	349.463
671.368	333.467
671.919	303.471
672.473	354.974
673.024	303.478
673.576	359.482
674.129	367.485
674.68	304.489
675.234	331.493
675.785	334.997
676.336	355.5
676.889	341.004
677.441	339.508
677.992	382.511
678.545	372.515
679.096	356.019
679.647	333.022
680.198	332.526
680.751	353.53
681.302	317.533
681.852	329.537
682.405	322.541
682.956	312.544
683.507	337.048
684.058	321.552
684.61	343.556
685.161	376.559
685.712	320.563
686.262	306.567
686.815	328.07
687.366	334.574
687.916	354.578
688.466	318.081
689.019	314.585
689.569	326.589
690.12	324.592
690.67	360.596
691.22	345.6
691.773	319.603
692.323	368.607
692.873	315.611
693.423	328.115
693.974	320.618
694.524	339.622
695.076	315.626
695.626	344.129
696.176	320.633
696.726	309.637
697.276	331.64
697.826	316.644
698.376	316.648
698.928	338.651
699.477	325.655
700.027	361.159
700.577	345.162
701.127	310.666
701.676	342.67
702.226	377.673
702.776	314.677
703.325	338.681
703.875	323.685
704.424	322.688
704.974	341.192
705.523	342.196
706.073	336.199
706.622	339.203
707.173	349.707
707.723	353.71
708.272	338.214
708.821	315.718
709.371	335.221
709.92	328.225
710.469	322.729
711.018	322.232
711.567	341.236
712.116	343.24
712.663	320.744
713.212	330.747
713.761	334.751
714.31	355.755
714.859	317.258
715.408	334.762
715.957	310.266
716.505	343.769
717.054	319.773
717.603	339.277
718.152	368.28
718.7	365.784
719.249	357.288
719.798	357.791
720.344	370.795
720.893	364.799
721.441	335.303
721.99	312.806
722.538	363.81
723.086	335.814
723.635	321.317
724.183	341.321
724.729	317.325
725.278	333.328
725.826	329.332
726.374	365.836
726.922	316.339
727.468	371.343
728.017	346.847
728.565	341.85
729.113	330.854
729.661	322.858
730.207	361.861
730.755	346.865
731.303	335.869
731.851	316.873
732.398	326.876
732.944	314.88
733.492	328.884
734.04	330.887
734.587	335.891
735.133	339.895
735.681	333.398
736.228	348.902
736.774	374.906
737.321	322.909
737.869	340.913
738.417	350.917
738.962	339.421
739.509	363.424
740.057	335.928
740.602	345.932
741.149	363.435
741.697	318.939
742.242	344.443
742.789	340.946
743.336	358.95
743.882	335.954
744.429	349.957
744.976	369.961
745.521	348.965
746.068	368.468
746.613	375.972
747.16	363.976
747.707	308.979
748.252	356.983
748.799	330.987
749.343	335.991
749.89	360.994
750.437	339.498
750.982	349.502
751.528	328.505
752.073	305.009
752.62	311.013
753.164	330.016
753.711	323.02
754.255	340.024
754.802	334.027
755.346	365.031
755.893	384.035
756.437	361.038
756.984	373.042
757.528	337.046
758.074	310.049
758.618	370.053
759.165	340.057
759.709	325.561
760.255	345.564
760.799	305.068
761.346	323.072
761.89	316.075
762.436	362.579
762.98	341.583
763.526	350.086
764.07	338.59
764.613	307.094
765.159	336.597
765.703	307.101
766.249	345.105
766.793	336.108
767.337	313.112
767.882	317.616
768.426	308.12
768.972	350.123
769.515	333.127
770.059	345.631
770.605	351.134
771.148	308.138
771.691	322.642
772.237	340.645
772.78	320.649
773.324	310.153
773.869	337.156
774.413	340.16
774.956	349.164
775.501	328.167
776.044	336.671
776.588	339.175
777.131	345.178
777.676	321.182
778.219	313.186
778.762	306.69
779.307	373.193
779.85	383.197
780.393	311.201
780.936	309.204
781.481	336.708
782.024	314.712
782.567	306.215
783.109	319.719
783.652	345.223
784.197	335.226
784.74	339.23
785.282	363.234
785.825	325.237
786.368	364.241
786.912	339.745
787.455	376.249
787.997	348.752
788.54	346.256
789.082	341.76
789.627	363.263
790.169	353.767
790.712	368.771
791.254	326.274
791.796	310.278
792.339	332.282
792.881	375.785
793.423	333.289
793.967	304.293
794.509	351.296
795.051	315.3
795.594	342.304
796.135	306.308
796.678	310.311
797.219	308.315
797.761	307.819
798.303	324.822
798.845	343.326
799.387	347.83
799.929	308.333
800.471	341.337
801.012	313.341
801.554	358.344
802.096	342.348
802.637	333.352
803.179	313.355
803.721	352.359
804.262	304.363
804.804	318.366
805.345	318.37
805.887	358.374
806.428	373.378
806.97	337.381
807.511	324.385
808.052	311.889
808.594	315.392
809.135	332.396
809.676	356.9
810.217	343.403
810.759	331.407
811.3	359.411
811.841	367.914
812.382	317.418
812.923	329.922
813.462	338.425
814.003	311.929
814.544	314.433
815.085	319.436
815.626	339.94
816.167	326.944
816.707	343.948
817.248	368.451
817.787	314.455
818.328	351.459
818.868	351.962
819.409	336.466
819.95	353.97
820.49	307.473
821.029	342.977
821.569	325.481
822.11	323.484
822.65	304.488
823.191	387.492
823.729	350.996
824.27	316.499
824.81	344.503
825.35	363.507
825.888	337.01
826.429	349.514
826.969	352.018
827.509	339.021
828.047	368.025
828.587	360.029
829.128	322.032
829.668	319.536
830.206	318.54
830.746	342.543
831.286	341.547
831.823	325.551
832.363	324.054
832.903	362.058
833.443	314.562
833.981	356.066
834.521	339.569
835.06	325.573
835.598	343.577
836.138	329.08
836.675	336.584
837.215	353.088
837.755	339.091
838.292	340.095
838.832	340.099
839.371	305.602
839.909	337.606
840.448	316.61
840.985	329.613
841.525	314.617
842.064	340.121
842.601	327.624
843.141	320.628
843.678	334.632
844.217	307.636
844.754	331.639
845.293	325.643
845.83	330.647
846.37	325.65
846.909	340.154
847.446	347.158
847.985	339.161
848.521	305.665
849.06	329.169
849.597	348.672
850.136	315.676
850.673	332.68
851.212	335.684
851.748	319.687
852.287	308.691
852.824	342.695
853.36	323.698
853.899	315.702
854.436	367.706
854.974	306.709
855.511	314.713
856.049	345.217
856.586	351.22
857.122	304.724
857.661	354.728
858.197	317.731
858.735	330.235
859.272	388.239
859.808	336.742
860.346	359.746
860.882	363.75
861.421	325.754
861.957	354.257
862.493	351.761
863.031	313.765
863.567	340.768
864.103	343.772
864.641	344.776
865.177	343.779
865.713	322.783
866.251	342.287
866.787	320.79
867.322	307.794
867.86	342.798
868.396	350.801
868.932	308.805
869.467	353.809
870.005	316.813
870.541	331.816
871.076	333.32
871.612	314.324
872.15	331.827
872.685	315.831
873.221	343.835
873.756	359.338
874.294	328.842
874.829	328.846
875.364	340.349
875.9	329.853
876.437	333.857
876.972	380.86
877.507	356.364
878.043	334.368
878.578	345.371
879.113	305.375
879.65	331.379
880.185	353.383
880.72	309.886
881.255	308.89
881.79	335.894
882.325	321.397
882.86	324.401
883.397	323.905
883.932	322.908
884.467	352.412
885.001	316.416
885.536	375.419
886.071	329.423
886.605	310.927
887.14	317.93
887.675	376.934
888.209	335.938
888.746	329.942
889.281	329.945
889.815	353.949
890.35	353.453
890.884	325.456
891.418	314.96
891.953	369.964
892.487	310.967
893.021	356.971
893.556	347.475
894.09	319.478
894.624	370.982
895.158	327.986
895.693	362.989
896.227	325.993
896.761	332.997
897.295	325
897.829	372.004
898.363	347.008
898.897	332.012
899.431	340.015
899.963	312.019
900.497	355.023
901.031	317.526
901.564	320.53
902.098	336.034
902.632	330.037
903.166	319.041
903.699	306.045
904.233	348.548
904.767	330.052
905.3	317.056
905.832	332.06
906.365	316.063
906.899	330.067
907.432	310.071
907.966	312.074
908.499	350.578
909.031	314.582
909.564	356.585
910.097	372.089
910.631	332.593
911.164	351.096
911.697	349.6
912.228	321.104
912.761	322.107
913.295	315.111
913.828	327.115
914.361	366.118
914.892	373.622
915.425	341.126
915.958	364.63
916.491	309.133
917.022	321.637
917.555	334.641
918.087	313.144
918.618	320.148
919.151	336.152
919.684	333.655
920.216	362.159
920.747	329.163
921.28	329.166
921.813	344.17
922.343	334.674
922.876	319.177
923.408	326.181
923.939	338.185
924.471	344.689
925.004	343.192
925.534	371.196
926.066	390.2
926.599	347.203
927.129	307.207
927.661	352.211
928.194	318.214
928.724	352.218
929.256	332.222
929.786	311.225
930.318	305.229
930.851	320.233
931.381	338.736
931.913	309.24
932.443	308.244
932.975	335.748
933.505	384.251
934.037	347.755
934.566	352.759
935.098	333.262
935.63	330.766
936.16	366.77
936.692	338.773
937.221	361.777
937.753	337.281
938.283	354.284
938.814	340.288
939.344	345.792
939.876	309.295
940.405	352.299
940.937	333.803
941.466	340.306
941.996	385.81
942.527	315.814
943.056	317.318
943.588	350.821
944.117	347.825
944.648	308.329
945.178	314.332
945.707	340.836
946.238	324.34
946.767	360.843
947.299	323.847
947.828	305.351
948.357	332.354
948.888	322.358
949.417	365.862
949.948	316.865
950.477	340.869
951.006	360.373
951.537	322.376
952.065	340.38
952.594	350.384
953.125	347.888
953.654	321.391
954.183	324.395
954.713	370.899
955.242	325.902
955.771	347.906
956.301	364.91
956.83	337.913
957.358	316.417
957.887	337.421
958.418	359.424
958.946	336.428
959.474	334.432
960.003	326.935
960.533	329.439
961.062	367.443
961.59	324.447
962.118	313.45
962.648	311.954
963.177	339.958
963.705	363.461
964.233	355.965
964.761	351.469
965.291	353.972
965.819	309.476
966.347	316.48
966.875	325.483
967.403	361.987
967.931	342.491
968.461	327.494
968.989	331.998
969.517	356.502
970.045	359.506
970.573	360.009
971.1	321.513
971.628	337.517
972.158	341.52
972.685	318.024
973.213	356.028
973.741	321.531
974.268	334.035
974.796	331.039
975.323	313.042
975.851	325.546
976.378	382.55
976.906	346.553
977.433	334.057
977.96	310.561
978.488	354.065
979.015	317.568
979.542	322.072
980.07	374.576
980.597	344.579
981.124	328.583
981.651	339.087
982.178	354.59
982.705	307.594
983.232	371.598
983.759	339.601
984.286	343.105
984.813	337.609
985.34	353.112
985.867	325.116
986.394	316.12
986.921	329.623
987.448	352.627
987.975	330.631
988.501	372.135
989.028	353.138
989.555	307.642
990.081	327.146
990.608	316.649
991.133	330.653
991.659	358.157
992.186	326.16
992.712	316.664
993.239	322.668
993.765	315.671
994.292	323.175
994.816	352.179
995.342	321.682
995.869	331.686
996.395	379.19
996.921	339.194
997.448	338.697
997.972	321.701
998.498	315.705
999.024	323.708
999.55	343.712
1000.08	351.216
1000.6	333.219
1001.13	342.223
1001.65	370.727
1002.18	370.23
1002.7	351.734
1003.23	328.738
1003.75	320.741
1004.28	347.745
1004.8	329.249
1005.33	334.753
1005.86	331.756
1006.38	327.26
1006.9	311.764
1007.43	320.767
1007.96	313.271
1008.48	310.775
1009.01	330.778
1009.53	307.782
1010.05	351.786
1010.58	345.789
1011.1	363.793
1011.63	345.297
1012.15	327.3
1012.68	317.304
1013.2	377.808
1013.73	369.812
1014.25	317.815
1014.78	313.819
1015.3	345.323
1015.82	323.826
1016.35	363.33
1016.87	336.834
1017.4	348.837
1017.92	382.841
1018.45	345.845
1018.97	365.848
1019.49	341.852
1020.02	332.856
1020.54	320.359
1021.07	322.863
1021.59	362.867
1022.11	313.37
1022.64	318.874
1023.16	364.378
1023.69	322.882
1024.21	349.385
1024.73	341.389
1025.26	347.893
1025.78	334.896
1026.3	362.4
1026.83	325.404
1027.35	318.907
1027.87	323.411
1028.4	349.415
1028.92	314.918
1029.44	307.137
1029.97	352.74
1030.49	385.828
1031.01	331.753
1031.54	361.639
1032.06	327.481
1032.58	334.697
1033.11	346.96
1033.63	360.029
1034.15	364.814
1034.67	321.871
1035.2	358.223
1035.72	338.506
1036.24	333.084
1036.76	359.583
1037.29	354.94
1037.81	370.786
1038.33	375.456
1038.85	339.175
1039.38	342.952
1039.9	319.128
1040.42	346.815
1040.95	374.583
1041.47	335.412
1041.99	338.708
1042.51	331.616
1043.03	372.081
1043.56	346.669
1044.08	342.888
1044.6	328.977
1045.12	349.694
1045.64	371.265
1046.17	347.234
1046.69	338.581
1047.21	331.492
1047.73	323.8
1048.25	322.594
1048.77	357.655
1049.3	315.617
1049.82	332.705
1050.34	324.595
1050.86	348.979
1051.38	329.469
1051.9	349.862
1052.43	363.636
1052.95	345.446
1053.47	318.81
1053.99	318.677
1054.51	339.384
1055.03	344.022
1055.55	350.746
1056.07	350.999
1056.6	354.54
1057.12	323.417
1057.64	362.806
1058.16	330.04
1058.68	322.607
1059.2	328.875
1059.72	345.914
1060.24	348.469
1060.76	333.23
1061.28	325.388
1061.8	343.526
1062.32	343.241
1062.84	314.391
1063.37	323.632
1063.89	371.087
1064.41	337.133
1064.93	327.093
1065.45	339.143
1065.97	349.471
1066.49	359.566
1067.01	369.641
1067.53	345.318
1068.05	344.126
1068.57	347.142
1069.09	336.537
1069.61	320.258
1070.13	352.376
1070.65	358.751
1071.17	343.051
1071.69	344.729
1072.21	337.487
1072.73	351.237
1073.25	348.527
1073.77	356.117
1074.29	350.192
1074.81	331.289
1075.33	333.155
1075.84	346.374
1076.36	346.804
1076.88	336.975
1077.4	320.921
1077.92	318.36
1078.44	331.733
1078.96	329.146
1079.48	339.86
1080	359.283
1080.52	343.166
1081.04	331.013
1081.56	324.007
1082.08	336.031
1082.59	350.252
1083.11	351.414
1083.63	345.274
1084.15	347.956
1084.67	348.067
1085.19	330.401
1085.71	343.487
1086.07	324.209
1086.59	309.212
1087.12	340.216
1087.64	364.22
1088.17	324.724
1088.69	369.727
1089.21	367.731
1089.74	353.735
1090.26	323.739
1090.79	319.742
1091.31	323.746
1091.84	313.25
1092.36	360.254
1092.88	345.757
1093.41	380.761
1093.93	308.265
1094.46	373.769
1094.98	332.272
1095.5	360.276
1096.03	358.28
1096.55	348.283
1097.08	333.787
1097.6	346.291
1098.12	378.295
1098.65	316.298
1099.17	355.802
1099.7	313.806
1100.22	346.31
1100.74	332.313
1101.27	359.817
1101.79	339.321
1102.31	358.825
1102.84	378.828
1103.36	365.832
1103.88	347.336
1104.41	326.34
1104.93	352.343
1105.45	307.347
1105.98	322.851
1106.5	345.354
1107.02	332.358
1107.55	364.862
1108.07	367.366
1108.59	329.369
1109.11	360.873
1109.64	326.377
1110.16	351.881
1110.68	309.884
1111.21	342.388
1111.73	315.392
1112.25	320.896
1112.77	342.899
1113.29	325.403
1113.82	319.907
1114.34	314.411
1114.86	338.414
1115.39	343.418
1115.91	344.422
1116.43	368.425
1116.95	363.429
1117.47	350.933
1118	327.937
1118.52	334.44
1119.04	329.444
1119.56	384.448
1120.08	330.452
1120.61	358.455
1121.13	349.959
1121.65	360.463
1122.17	379.467
1122.69	362.47
1123.21	348.474
1123.74	318.478
1124.26	325.482
1124.78	314.985
1125.3	323.989
1125.82	328.493
1126.35	359.996
1126.87	323.5
1127.39	313.504
1127.91	311.008
1128.43	313.511
1128.95	310.515
1129.47	346.519
1129.99	333.023
1130.51	362.526
1131.04	345.53
1131.56	341.034
1132.08	317.038
1132.6	362.541
1133.12	313.545
1133.64	336.549
1134.16	360.552
1134.68	333.556
1135.2	322.56
1135.73	354.564
1136.25	310.567
1136.77	333.571
1137.29	332.075
1137.81	350.579
1138.33	318.582
1138.85	320.586
1139.37	352.59
1139.89	307.594
1140.41	321.597
1140.93	338.601
1141.45	343.605
1141.97	311.609
1142.49	354.112
1143.01	327.116
1143.53	315.62
1144.05	334.624
1144.57	353.627
1145.09	325.631
1145.61	378.635
1146.13	313.638
1146.65	362.142
1147.17	332.646
1147.69	328.65
1148.21	325.653
1148.73	326.157
1149.25	313.661
1149.77	315.665
1150.29	361.668
1150.81	308.672
1151.33	359.176
1151.85	317.18
1152.37	314.683
1152.89	313.187
1153.41	337.191
1153.93	336.194
1154.45	364.198
1154.96	336.702
1155.48	322.206
1156	337.209
1156.52	351.713
1157.04	344.717
1157.56	329.221
1158.08	335.224
1158.6	376.728
1159.12	309.732
1159.64	373.236
1160.16	351.739
1160.67	341.743
1161.19	351.747
1161.71	321.751
1162.23	330.754
1162.75	317.258
1163.27	350.762
1163.78	341.766
1164.3	336.769
1164.82	309.773
1165.34	391.777
1165.86	355.78
1166.38	306.784
1166.89	317.788
1167.41	318.292
1167.93	337.795
1168.45	332.299
1168.97	371.303
1169.49	369.807
1170	310.81
1170.52	329.814
1171.04	339.818
1171.56	306.822
1172.08	329.825
1172.59	345.329
1173.11	352.333
1173.63	322.836
1174.15	318.84
1174.66	325.344
1175.18	327.348
1175.7	332.351
1176.22	368.855
1176.73	327.859
1177.25	338.863
1177.77	334.366
1178.29	349.87
1178.81	356.874
1179.32	344.878
1179.84	337.881
1180.36	337.885
1180.87	358.389
1181.39	346.893
1181.91	375.396
1182.42	328.4
1182.94	344.904
1183.46	328.907
1183.98	305.911
1184.49	348.415
1185.01	354.919
1185.53	329.422
1186.04	343.926
1186.56	315.93
1187.08	362.434
1187.59	337.437
1188.11	325.941
1188.63	344.445
1189.14	322.449
1189.66	314.952
1190.17	325.956
1190.69	317.46
1191.21	338.964
1191.72	309.967
1192.24	332.971
1192.76	330.475
1193.27	321.978
1193.79	310.982
1194.3	361.486
1194.82	343.99
1195.34	329.493
1195.85	363.997
1196.37	376.501
1196.89	341.005
1197.4	394.508
1197.92	341.512
1198.43	376.016
1198.95	345.52
1199.46	364.023
1199.98	348.027
1200.5	329.531
1201.01	380.035
1201.53	313.038
1202.04	333.042
1202.56	319.046
1203.07	358.049
1203.59	354.053
1204.1	310.557
1204.62	339.561
1205.13	328.064
1205.65	320.568
1206.17	360.072
1206.68	341.076
1207.19	312.079
1207.71	311.083
1208.23	317.587
1208.74	333.591
1209.26	339.594
1209.77	371.598
1210.28	332.602
1210.8	339.105
1211.31	324.609
1211.83	370.113
1212.34	374.117
1212.86	338.12
1213.37	337.124
1213.89	310.128
1214.4	364.632
1214.92	321.635
1215.43	323.639
1215.95	309.143
1216.46	339.147
1216.97	363.15
1217.49	357.154
1218	357.158
1218.52	306.162
1219.03	345.165
1219.54	325.169
1220.06	351.173
1220.57	315.176
1221.09	349.18
1221.6	334.684
1222.11	343.188
1222.63	355.191
1223.14	333.195
1223.66	331.199
1224.17	330.703
1224.68	367.206
1225.2	329.71
1225.71	316.714
1226.22	338.218
1226.74	318.721
1227.25	347.725
1227.77	331.229
1228.28	364.233
1228.79	329.736
1229.31	307.24
1229.82	321.744
1230.33	325.247
1230.84	318.251
1231.36	323.755
1231.87	377.259
1232.38	309.262
1232.9	359.266
1233.41	367.27
1233.92	343.274
1234.44	317.777
1234.95	364.781
1235.46	385.285
1235.97	340.789
1236.49	332.792
1237	334.796
1237.51	327.3
1238.02	353.804
1238.54	353.307
1239.05	347.311
1239.56	315.315
1240.07	348.318
1240.59	319.322
1241.1	348.326
1241.61	321.33
1242.12	353.833
1242.64	346.337
1243.15	320.341
1243.66	352.345
1244.17	335.348
1244.68	313.352
1245.2	326.356
1245.71	319.36
1246.22	352.863
1246.73	345.867
1247.25	366.371
1247.76	330.375
1248.27	359.378
1248.78	351.882
1249.29	335.386
1249.8	328.889
1250.32	365.393
1250.83	357.397
1251.34	317.401
1251.85	348.904
1252.36	338.408
1252.87	318.412
1253.39	323.416
1253.9	330.919
1254.41	329.423
1254.92	312.927
1255.43	318.431
1255.94	367.434
1256.45	339.938
1256.96	369.442
1257.47	325.945
1257.99	332.449
1258.5	371.953
1259.01	327.457
1259.52	348.96
1260.03	311.964
1260.54	345.968
1261.05	353.972
1261.56	322.475
1262.07	312.479
1262.58	321.483
1263.09	347.487
1263.6	370.49
1264.11	380.994
1264.63	355.498
1265.14	381.502
1265.65	377.505
1266.16	367.509
1266.67	362.013
1267.18	348.517
1267.69	327.02
1268.2	340.524
1268.71	320.528
1269.22	321.531
1269.73	346.535
1270.24	325.039
1270.75	317.043
1271.26	335.046
1271.77	327.05
1272.28	355.054
1272.79	346.058
1273.3	358.561
1273.81	339.065
1274.32	335.069
1274.83	342.573
1275.34	346.576
1275.85	332.58
1276.36	310.584
1276.87	333.087
1277.37	353.091
1277.88	365.595
1278.39	337.599
1278.9	361.102
1279.41	341.606
1279.92	368.61
1280.43	352.114
1280.94	368.617
1281.45	321.121
1281.96	335.125
1282.47	374.129
1282.98	333.132
1283.49	345.136
1284	343.64
1284.5	308.644
1285.01	316.647
1285.52	378.151
1286.03	351.155
1286.54	323.158
1287.05	310.662
1287.56	356.166
1288.07	352.67
1288.57	354.173
1289.08	391.177
1289.59	341.181
1290.1	312.685
1290.61	359.688
1291.12	315.692
1291.62	365.196
1292.13	341.7
1292.64	332.703
1293.15	336.707
1293.66	352.711
1294.17	320.715
1294.67	316.218
1295.18	355.722
1295.69	335.226
1296.2	337.729
1296.71	328.733
1297.21	327.237
1297.72	374.741
1298.23	352.244
1298.74	345.248
1299.24	367.752
1299.75	325.756
1300.26	338.259
1300.77	308.763
1301.28	316.767
1301.78	312.771
1302.29	383.274
1302.8	309.778
1303.31	338.782
1303.81	360.786
1304.32	316.789
1304.83	341.293
1305.34	361.797
1305.84	368.8
1306.35	342.304
1306.86	366.308
1307.36	342.812
1307.87	338.815
1308.38	314.819
1308.88	330.823
1309.39	350.827
1309.9	321.83
1310.4	318.834
1310.91	352.838
1311.42	339.842
1311.92	333.845
1312.43	327.349
1312.94	375.353
1313.45	311.857
1313.95	342.86
1314.46	347.864
1314.96	323.868
1315.47	327.871
1315.98	330.875
1316.48	351.879
1316.99	323.883
1317.5	330.386
1318	362.39
1318.51	332.894
1319.01	348.898
1319.52	319.901
1320.03	366.405
1320.53	340.409
1321.04	336.413
1321.54	319.416
1322.05	310.92
1322.56	324.424
1323.06	375.928
1323.57	338.931
1324.07	329.435
1324.58	321.939
1325.09	371.942
1325.59	318.946
1326.1	321.95
1326.6	332.954
1327.11	364.957
1327.61	349.461
1328.12	363.965
1328.63	355.469
1329.13	344.972
1329.63	346.476
1330.14	353.48
1330.65	356.984
1331.15	350.487
1331.66	365.491
1332.16	362.995
1332.67	353.999
1333.17	323.002
1333.68	347.006
1334.18	359.01
1334.69	347.013
1335.19	406.517
1335.7	352.021
1336.2	322.025
1336.71	343.028
1337.21	355.532
1337.72	318.036
1338.22	327.04
1338.72	360.043
1339.23	326.047
1339.73	312.051
1340.24	346.055
1340.74	340.558
1341.25	337.562
1341.75	353.066
1342.26	313.07
1342.76	344.073
1343.26	336.077
1343.77	370.081
1344.27	315.584
1344.78	357.088
1345.28	394.592
1345.79	336.096
1346.29	324.599
1346.79	357.103
1347.3	322.607
1347.8	315.111
1348.3	311.114
1348.81	381.118
1349.31	338.122
1349.82	363.126
1350.32	324.629
1350.82	333.133
1351.33	331.137
1351.83	321.141
1352.33	321.144
1352.84	328.148
1353.34	356.152
1353.84	341.655
1354.35	361.659
1354.85	341.163
1355.35	363.167
1355.86	392.67
1356.36	381.674
1356.86	330.678
1357.37	351.682
1357.87	343.685
1358.37	337.189
1358.88	357.693
1359.38	334.697
1359.88	359.2
1360.39	337.704
1360.89	329.208
1361.39	353.211
1361.89	348.215
1362.4	330.219
1362.9	320.223
1363.4	317.226
1363.9	337.23
1364.4	380.734
1364.91	350.238
1365.41	360.741
1365.91	315.245
1366.42	335.249
1366.92	344.253
1367.42	337.756
1367.92	347.26
1368.42	343.764
1368.93	323.768
1369.43	337.271
1369.93	365.275
1370.43	353.779
1370.94	370.782
1371.44	323.786
1371.94	352.79
1372.44	362.794
1372.94	314.297
1373.44	345.301
1373.95	314.305
1374.45	338.309
1374.95	334.312
1375.45	356.816
1375.95	315.32
1376.45	336.824
1376.96	343.827
1377.46	321.331
1377.96	342.335
1378.46	335.839
1378.96	333.842
1379.46	328.346
1379.96	345.85
1380.47	333.853
1380.97	377.357
1381.47	377.361
1381.97	328.365
1382.47	355.868
1382.97	357.372
1383.47	342.376
1383.97	359.88
1384.47	325.883
1384.98	336.387
1385.48	332.391
1385.98	317.395
1386.48	333.898
1386.98	338.902
1387.48	354.906
1387.98	394.41
1388.48	329.413
1388.98	331.917
1389.48	325.921
1389.98	342.424
1390.48	317.428
1390.98	344.932
1391.48	366.436
1391.98	380.939
1392.48	383.443
1392.98	354.447
1393.49	353.451
1393.99	314.454
1394.49	363.458
1394.99	360.962
1395.49	354.466
1395.99	346.469
1396.49	349.473
1396.99	351.977
1397.48	353.981
1397.98	355.484
1398.48	340.488
1398.98	320.492
1399.48	367.495
1399.99	348.999
1400.48	400.503
1400.98	340.507
1401.48	378.51
1401.98	315.514
1402.48	321.518
1402.98	344.522
1403.48	361.525
1403.98	336.029
1404.48	321.533
1404.98	360.037
1405.48	349.54
1405.98	332.544
1406.48	368.048
1406.98	336.052
1407.47	330.555
1407.97	364.559
1408.47	334.563
1408.97	374.566
1409.47	336.57
1409.97	327.074
1410.47	336.578
1410.97	349.581
1411.47	356.585
1411.97	378.589
1412.46	335.593
1412.96	373.596
1413.46	373.1
1413.96	344.604
1414.46	329.108
1414.96	327.611
1415.46	376.615
1415.95	363.119
1416.45	338.123
1416.95	346.126
1417.45	359.63
1417.95	366.134
1418.45	383.137
1418.94	334.641
1419.44	332.645
1419.94	364.649
1420.44	342.652
1420.94	382.656
1421.43	324.66
1421.93	328.664
1422.43	344.167
1422.93	339.171
1423.42	354.675
1423.92	342.179
1424.42	391.682
1424.92	347.686
1425.42	363.69
1425.91	363.694
1426.41	356.697
1426.91	375.701
1427.41	344.705
1427.9	340.208
1428.4	327.712
1428.9	332.216
1429.4	342.72
1429.89	352.723
1430.39	349.727
1430.89	349.231
1431.38	334.735
1431.88	367.238
1432.38	369.742
1432.88	354.246
1433.37	344.25
1433.87	349.753
1434.37	337.257
1434.87	315.761
1435.36	336.764
1435.86	361.768
1436.36	370.272
1436.85	317.776
1437.35	344.779
1437.84	328.783
1438.34	377.787
1438.84	328.791
1439.34	359.294
1439.83	352.798
1440.33	385.802
1440.83	348.806
1441.32	349.309
1441.82	375.813
1442.31	380.817
1442.81	359.821
1443.31	371.324
1443.8	369.828
1444.3	370.332
1444.8	328.336
1445.29	366.339
1445.79	325.843
1446.28	374.847
1446.78	364.85
1447.28	320.854
1447.77	345.358
1448.27	320.862
1448.76	320.865
1449.26	342.869
1449.75	370.373
1450.25	388.877
1450.75	331.88
1451.24	355.384
1451.74	326.888
1452.23	324.892
1452.73	335.395
1453.22	362.899
1453.72	321.903
1454.21	381.406
1454.71	340.91
1455.2	323.914
1455.7	384.918
1456.19	371.921
1456.69	322.925
1457.18	354.429
1457.68	345.433
1458.17	353.936
1458.67	334.94
1459.17	325.944
1459.66	355.948
1460.15	350.951
1460.65	387.955
1461.14	343.459
1461.64	330.963
1462.13	341.966
1462.63	369.97
1463.12	380.474
1463.62	391.978
1464.11	347.981
1464.61	321.985
1465.1	361.489
1465.6	324.992
1466.09	327.996
1466.58	336
1467.08	340.504
1467.57	326.507
1468.07	387.011
1468.56	337.515
1469.06	339.019
1469.55	353.522
1470.04	381.526
1470.54	353.03
1471.03	328.534
1471.53	365.537
1472.02	362.041
1472.51	341.045
1473.01	331.548
1473.5	330.052
1474	328.556
1474.49	319.06
1474.98	325.063
1475.48	342.567
1475.97	342.071
1476.46	371.075
1476.96	350.078
1477.45	332.082
1477.94	349.586
1478.44	342.09
1478.93	371.093
1479.42	340.597
1479.92	374.101
1480.41	344.605
1480.9	347.108
1481.4	348.112
1481.89	323.616
1482.38	359.119
1482.88	356.123
1483.37	341.127
1483.86	337.631
1484.35	359.634
1484.85	362.638
1485.34	380.142
1485.83	356.646
1486.33	321.149
1486.82	344.153
1487.31	379.157
1487.81	372.161
1488.3	349.164
1488.79	324.168
1489.28	388.172
1489.78	365.676
1490.27	355.179
1490.76	343.683
1491.25	354.687
1491.74	362.69
1492.24	347.194
1492.73	377.198
1493.22	342.202
1493.71	325.705
1494.21	365.209
1494.7	394.713
1495.19	341.217
1495.68	362.72
1496.17	326.724
1496.67	329.228
1497.16	321.232
1497.65	383.235
1498.14	361.739
1498.63	337.243
1499.13	364.746
1499.62	362.75
1500.11	340.254
1500.6	357.258
1501.09	323.261
1501.58	324.265
1502.08	366.167
1502.57	367.659
1503.06	331.431
1503.55	344.917
1504.04	357.271
1504.53	346.902
1505.02	327.325
1505.51	355.285
1506.01	342.653
1506.5	347.226
1506.99	338.573
1507.48	375.114
1507.97	349.811
1508.46	332.427
1508.95	338.009
1509.44	378.3
1509.93	357.999
1510.43	338.711
1510.92	363.574
1511.41	325.552
1511.9	383.382
1512.39	366.965
1512.88	349.81
1513.37	356.414
1513.86	342.18
1514.35	339.773
1514.84	353.204
1515.33	337.723
1515.82	358.04
1516.31	358.297
1516.8	336.916
1517.29	344.629
1517.78	374.292
1518.27	343.528
1518.76	345.524
1519.25	340.754
1519.74	363.386
1520.23	357.399
1520.72	341.09
1521.21	352.873
1521.7	355.059
1522.19	349.447
1522.68	356.146
1523.17	371.314
1523.66	356.238
1524.15	326.323
1524.64	359.829
1525.13	357.779
1525.62	353.694
1526.11	352.958
1526.6	347.651
1527.09	355.58
1527.58	356.081
1528.07	363.016
1528.56	368.802
1529.05	348.467
1529.54	327.427
1530.03	340.544
1530.52	354.565
1531.01	354.979
1531.49	353.165
1531.99	337.483
1532.47	335.223
1532.96	345.929
1533.45	356.26
1533.94	357.463
1534.43	346.951
1534.92	361.152
1535.41	341.119
1535.9	354.833
1536.39	356.705
1536.87	368.691
1537.36	339.352
1537.85	345.989
1538.34	369.411
1538.83	351.156
1539.32	331.817
1539.81	330.979
1540.29	356.285
1540.78	374.385
1541.27	384.152
1541.76	338.885
1542.25	356.211
1542.74	364.711
1543.22	340.179
1543.71	370.309
1544.2	355.727
1544.69	335.951
1545.18	333.758
1545.66	323.88
1546.15	350.233
1546.64	354.564
1547.13	362.569
1547.62	344.077
1548.1	338.195
1548.59	337.887
1549.08	371.15
1549.57	334.267
1549.59	331.94
1550.09	357.94
1550.58	337.44
1551.08	327.941
1551.57	345.941
1552.06	362.442
1552.56	400.442
1553.05	354.443
1553.54	362.443
1554.04	359.944
1554.53	353.944
1555.02	342.944
1555.52	347.445
1556.01	332.945
1556.5	333.946
1557	351.946
1557.49	358.947
1557.98	358.947
1558.47	358.948
1558.97	350.948
1559.46	344.448
1559.95	359.949
1560.45	371.949
1560.94	345.95
1561.43	385.95
1561.92	364.451
1562.42	377.451
1562.91	366.952
1563.4	334.952
1563.89	351.952
1564.39	388.953
1564.88	375.953
1565.37	381.954
1565.86	356.954
1566.36	370.455
1566.85	341.955
1567.34	367.956
1567.83	379.956
1568.33	339.456
1568.82	342.957
1569.31	381.957
1569.8	350.958
1570.29	341.958
1570.79	344.459
1571.28	329.959
1571.77	348.46
1572.26	325.96
1572.75	326.96
1573.25	368.461
1573.74	367.961
1574.23	350.962
1574.72	338.962
1575.21	349.963
1575.7	340.963
1576.2	368.964
1576.69	333.964
1577.18	329.964
1577.67	343.965
1578.16	329.965
1578.65	356.966
1579.14	375.466
1579.64	385.967
1580.13	346.967
1580.62	334.967
1581.11	357.968
1581.6	377.968
1582.09	398.469
1582.58	339.969
1583.07	327.47
1583.57	360.47
1584.05	330.971
1584.55	367.971
1585.04	388.471
1585.53	345.972
1586.02	334.972
1586.51	373.473
1587	351.473
1587.49	349.974
1587.98	364.974
1588.47	375.975
1588.96	366.975
1589.45	395.475
1589.94	338.976
1590.43	348.976
1590.93	376.477
1591.42	329.977
1591.91	338.978
1592.4	358.978
1592.89	329.979
1593.38	355.479
1593.87	351.979
1594.36	326.98
1594.85	324.98
1595.34	332.981
1595.83	403.981
1596.32	340.982
1596.81	369.482
1597.3	337.983
1597.79	347.983
1598.28	393.483
1598.77	341.984
1599.26	382.984
1599.75	363.985
1600.24	375.985
1600.73	357.986
1601.21	338.986
1601.71	398.487
1602.19	362.987
1602.68	366.487
1603.17	326.988
1603.66	348.988
1604.15	339.989
1604.64	347.989
1605.13	373.99
1605.62	329.99
1606.11	380.99
1606.6	341.491
1607.09	334.991
1607.58	331.992
1608.07	341.992
1608.55	338.993
1609.04	364.993
1609.53	369.994
1610.02	363.494
1610.51	383.995
1611	374.995
1611.49	393.995
1611.98	370.996
1612.47	366.996
1612.95	327.997
1613.44	378.997
1613.93	338.498
1614.42	343.998
1614.91	404.998
1615.4	329.999
1615.89	349.999
1616.37	388
1616.86	352
1617.35	359.501
1617.84	396.501
1618.33	336.002
1618.82	355.502
1619.3	355.502
1619.79	346.003
1620.28	370.503
1620.77	366.004
1621.26	337.004
1621.75	397.005
1622.23	381.505
1622.72	370.006
1623.21	379.006
1623.7	338.006
1624.18	368.007
1624.67	364.007
1625.16	363.008
1625.65	337.008
1626.14	359.009
1626.62	338.509
1627.11	373.51
1627.6	333.01
1628.09	351.01
1628.57	343.011
1629.06	390.011
1629.55	357.012
1630.04	391.512
1630.52	353.013
1631.01	339.013
1631.5	343.014
1631.98	342.014
1632.47	365.514
1632.96	364.515
1633.45	339.515
1633.93	378.016
1634.42	377.516
1634.91	342.017
1635.39	347.017
1635.88	408.018
1636.37	351.018
1636.85	374.018
1637.34	359.019
1637.83	340.519
1638.32	380.02
1638.8	368.02
1639.29	389.021
1639.78	410.021
1640.26	339.522
1640.75	332.022
1641.23	357.022
1641.72	371.023
1642.21	389.523
1642.69	343.024
1643.18	377.024
1643.67	350.525
1644.15	396.025
1644.64	338.025
1645.12	372.526
1645.61	374.026
1646.1	376.027
1646.58	391.527
1647.07	359.028
1647.56	346.028
1648.04	349.029
1648.53	379.029
1649.01	352.529
1649.5	346.03
1649.99	334.53
1650.47	358.031
1650.96	387.031
1651.44	347.032
1651.93	346.532
1652.41	359.533
1652.9	350.033
1653.38	365.533
1653.87	343.034
1654.36	358.034
1654.84	343.035
1655.33	376.035
1655.81	376.036
1656.3	343.036
1656.78	382.537
1657.27	358.037
1657.75	344.037
1658.24	374.538
1658.72	342.038
1659.21	375.539
1659.69	377.039
1660.18	368.04
1660.66	383.54
1661.15	353.041
1661.63	362.041
1662.12	365.041
1662.6	343.042
1663.09	378.042
1663.57	349.543
1664.06	385.043
1664.54	341.044
1665.03	342.544
1665.51	406.544
1666	334.045
1666.48	371.045
1666.97	335.546
1667.45	360.546
1667.93	368.047
1668.42	388.547
1668.9	389.048
1669.39	353.048
1669.87	358.048
1670.35	342.049
1670.84	379.049
1671.32	363.55
1671.81	375.55
1672.29	381.051
1672.78	420.051
1673.26	374.052
1673.74	396.052
1674.23	354.552
1674.71	413.053
1675.2	350.553
1675.68	363.054
1676.16	380.554
1676.65	388.055
1677.13	370.055
1677.61	359.556
1678.1	379.056
1678.58	357.056
1679.06	337.557
1679.55	353.057
1680.03	369.058
1680.51	349.558
1681	344.059
1681.48	335.059
1681.96	359.56
1682.45	337.06
1682.93	358.06
1683.42	365.561
1683.9	377.061
1684.38	344.062
1684.86	338.062
1685.35	338.063
1685.83	389.063
1686.31	369.564
1686.8	412.064
1687.28	393.064
1687.76	349.565
1688.24	396.065
1688.73	351.566
1689.21	353.566
1689.69	377.567
1690.17	344.567
1690.66	407.068
1691.14	341.068
1691.62	377.068
1692.11	365.569
1692.59	374.569
1693.07	376.57
1693.55	393.07
1694.04	357.071
1694.52	358.071
1695	369.072
1695.48	371.572
1695.96	370.072
1696.45	386.073
1696.93	370.073
1697.41	345.574
1697.89	390.574
1698.38	410.075
1698.86	354.075
1699.34	378.576
1699.82	373.076
1700.3	343.576
1700.78	348.077
1701.27	356.077
1701.75	412.078
1702.23	367.078
1702.71	344.079
1703.19	394.079
1703.67	410.079
1704.16	369.08
1704.64	387.58
1705.12	381.081
1705.6	373.581
1706.08	349.082
1706.56	348.582
1707.05	361.083
1707.53	379.083
1708.01	357.583
1708.49	345.084
1708.97	371.084
1709.45	402.585
1709.93	378.585
1710.41	378.086
1710.89	399.086
1711.37	393.087
1711.86	347.087
1712.34	402.087
1712.82	389.088
1713.3	370.588
1713.78	383.589
1714.26	400.589
1714.74	351.09
1715.22	360.09
1715.7	352.091
1716.18	386.091
1716.66	356.091
1717.14	342.092
1717.62	390.592
1718.1	384.093
1718.59	382.093
1719.07	374.594
1719.55	370.094
1720.03	374.595
1720.51	358.095
1720.99	383.595
1721.47	379.596
1721.95	348.096
1722.43	375.097
1722.91	387.597
1723.39	361.098
1723.87	345.098
1724.35	366.099
1724.83	364.099
1725.31	381.099
1725.79	349.1
1726.27	366.1
1726.75	406.601
1727.23	353.101
1727.71	355.102
1728.19	386.602
1728.67	356.602
1729.15	429.103
1729.62	377.103
1730.1	410.604
1730.58	383.104
1731.06	357.605
1731.54	382.105
1732.02	347.106
1732.5	376.606
1732.98	397.107
1733.46	367.107
1733.94	369.607
1734.42	343.108
1734.9	368.108
1735.38	401.109
1735.86	352.109
1736.34	405.11
1736.82	378.11
1737.29	391.11
1737.77	370.111
1738.25	346.611
1738.73	349.112
1739.21	375.612
1739.69	392.613
1740.17	407.613
1740.64	352.114
1741.12	355.614
1741.6	406.114
1742.08	383.115
1742.56	398.615
1743.04	347.616
1743.52	369.116
1744	377.117
1744.47	404.617
1744.95	417.118
1745.43	369.118
1745.91	370.118
1746.39	399.119
1746.86	369.619
1747.34	400.12
1747.82	399.62
1748.3	379.621
1748.78	396.121
1749.26	359.122
1749.73	407.622
1750.21	375.122
1750.69	377.123
1751.17	419.623
1751.65	366.124
1752.12	366.124
1752.6	394.125
1753.08	406.625
1753.56	362.626
1754.03	377.626
1754.51	364.126
1754.99	357.127
1755.47	360.127
1755.94	363.128
1756.42	368.128
1756.9	400.629
1757.38	377.129
1757.85	412.63
1758.33	422.13
1758.81	353.13
1759.29	361.131
1759.76	429.131
1760.24	363.132
1760.72	363.132
1761.19	370.133
1761.67	375.133
1762.15	395.633
1762.62	409.634
1763.1	390.134
1763.58	379.135
1764.06	401.635
1764.53	400.636
1765.01	369.136
1765.49	376.137
1765.96	379.637
1766.44	370.137
1766.92	412.138
1767.39	426.138
1767.87	357.139
1768.35	382.139
1768.82	395.14
1769.3	368.64
1769.77	381.141
1770.25	351.141
1770.73	391.641
1771.21	414.142
1771.68	366.142
1772.16	387.143
1772.63	351.143
1773.11	391.144
1773.58	387.144
1774.06	405.145
1774.54	406.645
1775.01	403.145
1775.49	377.146
1775.96	358.646
1776.44	410.147
1776.92	368.147
1777.39	367.148
1777.87	368.648
1778.34	381.649
1778.82	390.649
1779.3	412.149
1779.77	350.15
1780.25	413.65
1780.72	381.151
1781.2	367.651
1781.67	355.152
1782.15	435.152
1782.62	354.153
1783.1	375.653
1783.58	367.153
1784.05	399.654
1784.53	363.154
1785	373.155
1785.48	365.155
1785.95	358.156
1786.43	382.156
1786.9	373.156
1787.38	389.657
1787.85	397.657
1788.33	400.158
1788.8	385.158
1789.28	361.159
1789.75	430.659
1790.23	379.16
1790.7	388.66
1791.18	363.16
1791.65	399.661
1792.12	388.161
1792.6	367.662
1793.07	362.162
1793.55	384.663
1794.02	400.663
1794.5	407.164
1794.97	391.164
1795.45	401.164
1795.92	360.165
1796.4	427.665
1796.87	393.166
1797.34	376.166
1797.82	391.167
1798.29	383.167
1798.77	421.168
1799.24	384.168
1799.71	411.168
1800.19	405.169
1800.66	372.669
1801.14	408.67
1801.61	396.17
1802.09	386.171
1802.56	407.671
1803.03	357.672
1803.51	414.172
1803.98	367.672
1804.45	404.173
1804.93	366.673
1805.4	380.174
1805.87	369.174
1806.35	388.675
1806.82	375.175
1807.29	370.176
1807.77	383.676
1808.24	403.176
1808.71	389.677
1809.19	391.177
1809.66	384.678
1810.14	363.678
1810.61	378.179
1811.08	360.179
1811.55	376.18
1812.03	359.18
1812.5	384.18
1812.97	372.181
1813.45	381.181
1813.92	364.182
1814.39	390.182
1814.86	378.683
1815.34	412.683
1815.81	397.184
1816.28	365.684
1816.76	366.184
1817.23	399.685
1817.7	390.685
1818.17	369.186
1818.65	424.686
1819.12	358.187
1819.59	384.687
1820.06	399.188
1820.54	431.188
1821.01	375.688
1821.48	425.689
1821.95	417.189
1822.43	401.69
1822.9	407.19
1823.37	430.191
1823.84	387.691
1824.32	402.691
1824.79	372.192
1825.26	371.192
1825.73	414.193
1826.2	393.193
1826.67	426.194
1827.15	405.694
1827.62	395.695
1828.09	400.195
1828.56	371.695
1829.03	394.696
1829.51	392.696
1829.98	414.197
1830.45	377.197
1830.92	374.198
1831.39	399.198
1831.86	422.199
1832.34	416.699
1832.81	369.199
1833.28	378.2
1833.75	399.7
1834.22	389.201
1834.69	395.201
1835.16	386.202
1835.64	369.702
1836.11	397.703
1836.58	383.203
1837.05	384.203
1837.52	411.704
1837.99	408.204
1838.46	404.205
1838.93	406.705
1839.4	387.206
1839.87	378.706
1840.34	431.707
1840.81	396.707
1841.29	376.207
1841.76	372.708
1842.23	391.208
1842.7	394.209
1843.17	388.209
1843.64	409.21
1844.11	400.71
1844.58	395.211
1845.05	409.211
1845.52	384.211
1845.99	365.712
1846.46	388.212
1846.93	412.713
1847.4	395.213
1847.87	417.214
1848.34	414.214
1848.81	424.714
1849.28	407.215
1849.76	365.215
1850.22	414.716
1850.69	403.716
1851.17	387.217
1851.63	419.217
1852.1	422.718
1852.58	411.718
1853.04	395.219
1853.51	421.219
1853.98	395.719
1854.45	365.22
1854.92	371.22
1855.39	407.721
1855.86	379.221
1856.33	412.722
1856.8	398.722
1857.27	406.222
1857.74	393.223
1858.21	390.223
1858.68	382.724
1859.15	379.224
1859.62	389.225
1860.09	416.725
1860.56	393.226
1861.03	414.226
1861.5	378.226
1861.96	419.227
1862.43	422.727
1862.9	367.228
1863.37	383.228
1863.84	426.229
1864.31	402.729
1864.78	450.73
1865.25	388.23
1865.72	420.73
1866.18	387.231
1866.66	399.731
1867.12	384.232
1867.59	378.732
1868.06	388.233
1868.53	432.233
1869	415.234
1869.47	377.734
1869.93	370.234
1870.4	399.235
1870.87	382.235
1871.34	393.736
1871.81	405.736
1872.28	413.237
1872.75	406.237
1873.21	424.738
1873.68	385.738
1874.15	394.238
1874.62	393.239
1875.09	406.239
1875.55	416.24
1876.02	373.24
1876.49	378.741
1876.96	383.241
1877.43	382.242
1877.89	373.242
1878.36	404.742
1878.83	380.243
1879.3	420.743
1879.77	408.744
1880.23	419.244
1880.7	460.245
1881.17	415.245
1881.64	397.745
1882.1	427.746
1882.57	390.246
1883.04	403.247
1883.51	400.747
1883.97	395.748
1884.44	378.748
1884.91	432.249
1885.38	386.249
1885.84	419.249
1886.31	391.25
1886.78	407.25
1887.25	430.251
1887.71	405.251
1888.18	402.752
1888.65	404.252
1889.11	425.753
1889.58	422.753
1890.05	440.753
1890.51	402.254
1890.98	384.254
1891.45	410.255
1891.91	384.255
1892.38	393.256
1892.85	406.756
1893.31	409.257
1893.78	393.257
1894.25	419.257
1894.71	406.258
1895.18	406.258
1895.65	405.759
1896.11	383.259
1896.58	382.26
1897.05	419.26
1897.51	436.26
1897.98	403.761
1898.45	421.761
1898.91	425.762
1899.38	436.762
1899.84	405.263
1900.31	401.263
1900.78	413.264
1901.24	383.264
1901.71	423.765
1902.18	393.765
1902.64	419.765
1903.11	440.266
1903.57	389.266
1904.04	387.267
1904.5	377.267
1904.97	378.268
1905.44	405.768
1905.9	402.769
1906.37	409.269
1906.83	408.269
1907.3	407.27
1907.76	410.77
1908.23	422.771
1908.69	389.271
1909.16	405.272
1909.63	388.272
1910.09	387.272
1910.56	408.273
1911.02	423.273
1911.49	380.274
1911.95	388.774
1912.42	435.275
1912.88	385.275
1913.35	415.276
1913.81	390.276
1914.28	419.276
1914.74	413.777
1915.21	433.277
1915.67	418.778
1916.14	417.778
1916.6	422.279
1917.07	402.779
1917.53	423.28
1918	393.78
1918.46	412.78
1918.93	396.281
1919.39	428.781
1919.86	406.282
1920.32	411.282
1920.79	426.283
1921.25	397.283
1921.71	424.284
1922.18	399.784
1922.64	395.284
1923.11	393.285
1923.57	437.785
1924.03	400.786
1924.5	434.786
1924.96	394.287
1925.43	421.287
1925.89	419.288
1926.36	393.288
1926.82	436.288
1927.28	412.289
1927.75	434.289
1928.21	424.29
1928.68	401.79
1929.14	417.791
1929.6	426.791
1930.07	393.792
1930.53	408.292
1930.99	424.792
1931.46	423.293
1931.92	410.793
1932.39	439.294
1932.85	423.294
1933.31	386.295
1933.78	419.795
1934.24	423.796
1934.7	429.296
1935.17	461.296
1935.63	439.297
1936.09	392.797
1936.56	406.298
1937.02	421.298
1937.48	458.299
1937.95	420.799
1938.41	438.799
1938.87	403.8
1939.34	445.3
1939.8	416.801
1940.26	427.301
1940.72	399.302
1941.19	419.302
1941.65	389.303
1942.11	429.303
1942.58	401.323
1943.04	442.554
1943.5	439.192
1943.96	392.372
1944.43	407.808
1944.89	431.913
1945.35	447.754
1945.81	409.351
1946.28	437.201
1946.74	397.347
1947.2	440.993
1947.66	451.441
1948.13	402.979
1948.59	402.905
1949.05	434.348
1949.51	425.442
1949.98	438.87
1950.44	400.053
1950.9	397.39
1951.36	429.376
1951.82	405.455
1952.29	423.036
1952.75	403.071
1953.21	399.962
1953.67	428.57
1954.13	441.438
1954.6	405.826
1955.06	434.309
1955.52	421.461
1955.98	427.032
1956.44	443.431
1956.9	419.483
1957.37	414.058
1957.83	439.337
1958.29	420.29
1958.75	435.973
1959.21	420.221
1959.67	435.209
1960.13	443.567
1960.6	421.507
1961.06	428.656
1961.52	431.772
1961.98	441.122
1962.44	429.153
1962.9	446.09
1963.36	439.248
1963.83	422.013
1964.29	434.77
1964.75	431.586
1965.21	429.813
1965.67	406.015
1966.13	422.054
1966.59	421.972
1967.05	422.172
1967.51	409.157
1967.97	416.579
1968.43	420.007
1968.9	423.209
1969.36	410.654
1969.82	442.301
1970.28	414.183
1970.74	435.824
1971.2	433.918
1971.66	427.046
1972.12	425.85
1972.58	446.917
1973.04	426.649
1973.5	422.047
1973.96	445.967
1974.42	434.56
1974.88	435.622
1975.34	425.076
1975.8	419.264
1976.26	426.527
1976.72	420.577
1977.18	420
1977.64	449.494
1978.1	432.371
1978.56	432.1
1979.02	432.206
1979.48	453.308
1979.94	407.232
1980.4	418.431
1980.86	405.947
1981.32	416.531
1981.78	427.802
1982.24	403.906
1982.7	418.522
1983.16	425.668
1983.62	424.969
1984.08	431.798
1984.54	479.669
1985	429.743
1985.46	434.616
1985.92	461.399
1986.38	442.31
1986.83	425.434
1987.29	440.813
1987.75	421.319
1988.21	426.073
1988.67	453.701
1989.13	433.973
1989.59	433.1
1990.05	434.113
1990.51	429.054
1990.97	422.768
1991.06	421.36
1991.53	401.855
1991.99	437.85
1992.46	436.345
1992.92	411.841
1993.39	453.836
1993.85	461.331
1994.32	476.826
1994.78	447.821
1995.24	437.816
1995.71	409.812
1996.17	460.807
1996.64	433.802
1997.1	451.797
1997.57	409.792
1998.03	444.788
1998.5	438.783
1998.96	423.278
1999.42	444.273
1999.89	448.768
2000.35	447.764
2000.82	466.759
2001.28	427.254
2001.74	427.749
2002.21	422.244
2002.67	436.24
2003.13	421.735
2003.6	430.73
2004.06	410.725
2004.53	416.72
2004.99	422.716
2005.45	468.211
2005.92	433.706
2006.38	424.201
2006.84	415.696
2007.31	429.192
2007.77	430.687
2008.23	466.682
2008.7	461.177
2009.16	428.672
2009.62	473.168
2010.09	469.163
2010.55	437.158
2011.01	424.653
2011.48	432.148
2011.94	453.144
2012.4	444.139
2012.87	438.134
2013.33	441.629
2013.79	427.624
2014.25	429.119
2014.72	416.615
2015.18	432.61
2015.64	468.105
2016.11	450.6
2016.57	460.095
2017.03	463.091
2017.49	459.586
2017.96	418.581
2018.42	451.576
2018.88	487.571
2019.34	430.567
2019.81	434.562
2020.27	430.557
2020.73	439.552
2021.19	424.547
2021.66	436.043
2022.12	455.038
2022.58	470.533
2023.04	426.028
2023.5	461.523
2023.97	456.019
2024.43	464.014
2024.89	459.509
2025.35	487.504
2025.82	443.499
2026.28	416.495
2026.74	442.49
2027.2	475.985
2027.66	416.48
2028.12	490.475
2028.59	484.471
2029.05	470.466
2029.51	430.961
2029.97	437.956
2030.43	420.451
2030.9	441.946
2031.36	480.942
2031.82	429.437
2032.28	441.932
2032.74	415.427
2033.2	465.422
2033.67	473.418
2034.13	454.413
2034.59	437.908
2035.05	479.403
2035.51	442.398
2035.97	448.894
2036.43	426.389
2036.89	467.884
2037.36	442.379
2037.82	458.874
2038.28	443.37
2038.74	455.865
2039.2	455.36
2039.66	442.355
2040.12	427.35
2040.58	433.346
2041.04	453.341
2041.5	418.336
2041.96	454.331
2042.42	429.326
2042.89	418.322
2043.35	464.817
2043.81	457.312
2044.27	437.307
2044.73	456.302
2045.19	442.297
2045.65	435.293
2046.11	446.788
2046.57	428.283
2047.03	451.778
2047.49	467.273
2047.95	452.769
2048.41	437.264
2048.87	449.759
2049.33	441.754
2049.79	493.249
2050.25	459.245
2050.71	438.74
2051.17	459.735
2051.63	480.73
2052.09	440.225
2052.55	458.221
2053.01	429.716
2053.47	469.211
2053.93	448.206
2054.39	468.201
2054.85	457.697
2055.31	508.192
2055.77	484.687
2056.23	459.182
2056.69	450.677
2057.15	453.173
2057.61	431.668
2058.07	450.163
2058.53	454.158
2058.99	431.153
2059.45	462.148
2059.91	470.644
2060.37	447.139
2060.83	456.634
2061.29	481.129
2061.74	478.124
2062.2	482.62
2062.66	468.115
2063.12	446.61
2063.58	486.105
2064.04	462.6
2064.5	459.096
2064.96	465.091
2065.42	470.586
2065.88	464.081
2066.33	498.076
2066.79	463.572
2067.25	459.067
2067.71	470.062
2068.17	451.557
2068.63	452.552
2069.09	459.048
2069.55	444.543
2070	453.038
2070.46	456.033
2070.92	466.028
2071.38	445.024
2071.84	449.519
2072.3	437.014
2072.76	478.009
2073.21	474.004
2073.67	499
2074.13	480.995
2074.59	492.99
2075.05	439.985
2075.51	473.98
2075.96	478.475
2076.42	480.471
2076.88	508.466
2077.34	480.961
2077.8	465.456
2078.25	455.451
2078.71	449.447
2079.17	448.942
2079.63	465.937
2080.09	471.932
2080.54	432.927
2081	446.423
2081.46	466.418
2081.92	494.413
2082.37	449.908
2082.83	432.903
2083.29	480.899
2083.75	510.394
2084.21	473.389
2084.66	438.884
2085.12	470.879
2085.58	447.375
2086.03	504.87
2086.49	511.865
2086.95	445.86
2087.41	460.855
2087.86	471.851
2088.32	434.846
2088.78	455.841
2089.23	464.836
2089.69	440.331
2090.15	484.827
2090.61	468.322
2091.06	465.317
2091.52	493.312
2091.98	473.807
2092.43	461.303
2092.89	454.298
2093.35	476.293
2093.81	457.788
2094.26	519.283
2094.72	470.778
2095.17	478.774
2095.63	447.769
2096.09	448.764
2096.54	471.759
2097	491.254
2097.46	452.75
2097.91	449.745
2098.37	447.74
2098.83	447.735
2099.28	490.73
2099.74	460.226
2100.2	474.721
2100.65	453.216
2101.11	492.711
2101.56	475.706
2102.02	458.202
2102.48	482.697
2102.93	491.192
2103.39	481.687
2103.85	492.682
2104.3	511.678
2104.76	495.173
2105.21	482.668
2105.67	461.663
2106.13	448.658
2106.58	485.654
2107.04	456.649
2107.49	449.644
2107.95	464.639
2108.4	475.134
2108.86	447.129
2109.31	465.625
2109.77	456.62
2110.23	467.115
2110.68	461.61
2111.14	506.605
2111.59	456.601
2112.05	488.096
2112.5	489.091
2112.96	496.586
2113.41	453.081
2113.87	480.577
2114.32	485.572
2114.78	482.567
2115.23	459.562
2115.69	466.057
2116.14	516.053
2116.6	466.048
2117.05	494.043
2117.51	485.038
2117.96	452.033
2118.42	491.029
2118.87	486.524
2119.33	451.519
2119.78	509.014
2120.24	468.509
2120.69	473.005
2121.15	504
2121.6	487.495
2122.06	504.49
2122.51	489.485
2122.97	490.981
2123.42	479.476
2123.87	499.971
2124.33	480.466
2124.78	464.461
2125.24	475.456
2125.69	498.452
2126.15	503.947
2126.6	479.442
2127.05	504.937
2127.51	491.932
2127.96	477.928
2128.42	499.423
2128.87	468.418
2129.33	457.413
2129.78	468.408
2130.23	499.904
2130.69	490.399
2131.14	454.394
2131.6	462.389
2132.05	464.384
2132.5	483.88
2132.96	478.875
2133.41	495.87
2133.86	470.865
2134.32	476.36
2134.77	481.356
2135.22	485.851
2135.68	491.346
2136.13	479.341
2136.59	477.336
2137.04	507.832
2137.49	468.827
2137.95	507.822
2138.4	518.817
2138.85	452.312
2139.3	453.308
2139.76	478.303
2140.21	456.298
2140.67	464.293
2141.12	482.788
2141.57	501.284
2142.02	469.279
2142.48	517.274
2142.93	493.269
2143.38	503.264
2143.84	506.259
2144.29	508.255
2144.74	492.25
2145.19	485.745
2145.65	509.24
2146.1	500.235
2146.55	479.231
2147.01	503.226
2147.46	497.221
2147.91	493.716
2148.36	486.711
2148.82	472.207
2149.27	489.202
2149.72	494.197
2150.17	496.692
2150.63	483.187
2151.08	516.683
2151.53	520.678
2151.98	508.173
2152.43	480.168
2152.89	504.163
2153.34	523.159
2153.79	490.154
2154.24	476.149
2154.7	498.644
2155.15	525.139
2155.6	527.635
2156.05	496.13
2156.5	491.125
2156.96	507.62
2157.41	515.615
2157.86	505.61
2158.31	493.606
2158.76	513.101
2159.22	487.596
2159.67	518.591
2160.12	488.586
2160.57	502.082
2161.02	481.077
2161.47	501.072
2161.92	467.567
2162.38	476.062
2162.83	469.058
2163.28	469.553
2163.73	519.048
2164.18	470.043
2164.63	525.538
2165.08	495.534
2165.53	507.029
2165.99	491.524
2166.44	493.519
2166.89	483.014
2167.34	487.01
2167.79	516.005
2168.24	490
2168.69	495.995
2169.14	478.99
2169.59	503.486
2170.05	532.981
2170.5	482.976
2170.95	479.971
2171.4	478.966
2171.85	487.962
2172.3	489.957
2172.75	483.952
2173.2	483.947
2173.65	504.442
2174.1	523.938
2174.55	484.933
2175	477.428
2175.45	523.923
2175.9	502.918
2176.35	467.913
2176.81	492.909
2177.26	482.404
2177.71	531.899
2178.16	500.894
2178.61	479.889
2179.06	494.885
2179.51	485.88
2179.96	503.875
2180.41	539.87
2180.86	506.365
2181.31	502.861
2181.76	499.356
2182.21	481.851
2182.66	557.846
2183.11	486.841
2183.56	504.837
2184.01	475.832
2184.46	526.827
2184.91	528.322
2185.36	529.317
2185.81	536.813
2186.25	514.808
2186.7	482.803
2187.15	478.798
2187.6	516.793
2188.05	495.789
2188.5	499.784
2188.95	494.779
2189.4	509.774
2189.85	510.769
2190.3	503.764
2190.75	527.26
2191.2	541.755
2191.65	500.75
2192.1	524.745
2192.55	499.74
2193	532.236
2193.44	509.231
2193.89	519.226
2194.34	491.721
2194.79	513.716
2195.24	505.212
2195.69	501.707
2196.14	477.702
2196.59	524.697
2197.04	533.192
2197.48	502.688
2197.93	532.683
2198.38	515.678
2198.83	503.673
2199.28	508.168
2199.73	540.164
2200.18	526.659
2200.63	544.154
2201.07	499.649
2201.52	529.144
2201.97	514.14
2202.42	484.635
2202.87	514.63
2203.32	478.625
2203.76	483.12
2204.21	530.116
2204.66	505.611
2205.11	520.606
2205.56	529.101
2206	532.596
2206.45	533.091
2206.9	531.587
2207.35	540.582
2207.8	512.577
2208.24	512.072
2208.69	530.068
2209.14	513.063
2209.59	539.058
2210.04	506.053
2210.48	495.548
2210.93	518.543
2211.38	519.039
2211.83	540.534
2212.27	547.529
2212.72	510.524
2213.17	505.519
2213.62	507.515
2214.06	526.51
2214.51	548.505
2214.96	509.5
2215.41	505.995
2215.85	487.491
2216.3	522.986
2216.75	499.481
2217.2	534.976
2217.64	525.971
2218.09	509.967
2218.54	485.462
2218.98	502.957
2219.43	536.452
2219.88	502.947
2220.33	492.443
2220.77	515.438
2221.22	514.433
2221.67	503.428
2222.11	581.923
2222.56	511.418
2223.01	493.414
2223.45	525.409
2223.9	522.404
2224.35	497.399
2224.79	560.395
2225.24	503.39
2225.69	545.885
2226.13	501.88
2226.58	555.375
2227.03	547.87
2227.47	536.866
2227.92	550.861
2228.36	533.856
2228.81	533.851
2229.26	563.846
2229.7	530.842
2230.15	549.337
2230.6	506.832
2231.04	532.327
2231.49	500.322
2231.93	544.818
2232.38	512.813
2232.83	499.308
2233.27	528.303
2233.72	493.298
2234.16	497.294
2234.61	535.789
2235.06	515.284
2235.5	535.779
2235.95	552.774
2236.39	558.77
2236.84	513.265
2237.29	519.76
2237.73	518.255
2238.18	525.75
2238.62	501.245
2239.07	542.241
2239.51	497.236
2239.96	533.231
2240.4	541.226
2240.85	515.721
2241.3	559.717
2241.74	515.212
2242.19	538.707
2242.63	505.202
2243.08	532.197
2243.52	507.193
2243.97	561.188
2244.41	527.183
2244.86	510.178
2245.3	521.173
2245.75	514.169
2246.19	534.164
2246.64	576.659
2247.08	535.654
2247.53	505.149
2247.97	511.145
2248.42	556.64
2248.86	551.135
2249.31	507.63
2249.75	503.125
2250.2	557.121
2250.64	523.116
2251.09	570.111
2251.53	540.606
2251.97	529.601
2252.42	532.596
2252.86	522.092
2253.31	537.587
2253.75	526.082
2254.2	532.077
2254.64	542.072
2255.08	526.068
2255.53	518.063
2255.97	507.058
2256.42	539.053
2256.86	547.548
2257.3	555.044
2257.75	539.539
2258.19	541.534
2258.64	538.029
2259.08	582.024
2259.53	519.02
2259.97	519.515
2260.41	561.01
2260.86	516.005
2261.3	534
2261.75	556.496
2262.19	525.491
2262.63	517.986
2263.08	554.981
2263.52	527.976
2263.96	561.972
2264.41	550.467
2264.85	530.962
2265.29	561.957
2265.74	529.952
2266.18	525.948
2266.62	527.443
2267.07	550.938
2267.51	539.433
2267.95	536.928
2268.4	548.423
2268.84	554.419
2269.28	558.414
2269.73	520.909
2270.17	518.904
2270.61	525.899
2271.06	564.895
2271.5	530.89
2271.94	570.885
2272.39	544.88
2272.83	553.875
2273.27	514.871
2273.71	545.366
2274.16	512.861
2274.6	529.356
2275.04	512.851
2275.49	557.847
2275.93	556.842
2276.37	559.337
2276.81	551.832
2277.26	583.827
2277.7	565.823
2278.14	519.318
2278.58	534.813
2279.02	579.808
2279.47	550.803
2279.91	532.299
2280.35	554.794
2280.8	515.789
2281.24	520.784
2281.68	529.279
2282.12	543.275
2282.56	570.77
2283.01	562.265
2283.45	533.76
2283.89	551.255
2284.33	521.75
2284.77	539.246
2285.22	516.241
2285.66	559.736
2286.1	557.231
2286.54	534.727
2286.98	540.222
2287.42	559.217
2287.87	532.712
2288.31	524.707
2288.75	537.202
2289.19	596.698
2289.63	531.693
2290.08	527.688
2290.52	551.683
2290.96	599.678
2291.4	553.674
2291.84	569.169
2292.28	568.164
2292.72	571.659
2293.17	537.154
2293.61	544.15
2294.05	545.645
2294.49	534.64
2294.93	528.635
2295.37	566.13
2295.81	553.626
2296.25	577.621
2296.7	563.616
2297.14	541.611
2297.58	546.106
2298.02	561.602
2298.46	573.597
2298.9	521.592
2299.34	571.587
2299.78	527.582
2300.22	521.577
2300.66	525.573
2301.1	530.568
2301.54	553.563
2301.99	545.558
2302.43	534.553
2302.87	563.049
2303.31	528.044
2303.75	564.539
2304.19	533.534
2304.63	548.529
2305.07	539.025
2305.51	546.52
2305.95	543.015
2306.39	541.51
2306.83	540.505
2307.27	529.501
2307.71	584.496
2308.15	592.991
2308.59	543.986
2309.03	602.981
2309.47	585.977
2309.91	572.472
2310.35	547.467
2310.79	530.462
2311.23	539.457
2311.67	552.953
2312.11	533.448
2312.55	563.943
2312.99	536.438
2313.43	552.933
2313.87	578.429
2314.31	555.424
2314.75	581.419
2315.19	549.914
2315.63	577.909
2316.07	539.905
2316.51	568.4
2316.95	590.395
2317.39	542.89
2317.83	544.385
2318.27	568.38
2318.71	606.376
2319.14	584.371
2319.58	547.366
2320.02	564.861
2320.46	534.856
2320.9	549.352
2321.34	580.347
2321.78	541.342
2322.22	595.837
2322.66	540.332
2323.1	561.328
2323.54	537.323
2323.97	594.818
2324.41	579.313
2324.85	565.808
2325.29	543.304
2325.73	548.799
2326.17	534.294
2326.61	555.289
2327.05	563.284
2327.48	549.279
2327.92	626.775
2328.36	565.77
2328.8	572.265
2329.24	563.26
2329.68	569.756
2330.12	576.251
2330.55	584.246
2330.99	559.741
2331.43	566.736
2331.87	559.232
2332.31	585.227
2332.75	611.722
2333.18	546.217
2333.62	570.212
2334.06	573.207
2334.5	576.703
2334.94	558.198
2335.37	594.193
2335.81	574.688
2336.25	584.183
2336.69	584.679
2337.13	556.174
2337.56	592.669
2338	594.164
2338.44	549.159
2338.88	558.155
2339.31	588.15
2339.75	564.145
2340.19	550.14
2340.63	599.635
2341.07	584.131
2341.5	600.126
2341.94	549.121
2342.38	590.116
2342.82	576.111
2343.25	589.107
2343.69	555.102
2344.13	560.597
2344.57	565.092
2345	587.087
2345.44	560.583
2345.88	589.078
2346.32	568.073
2346.75	594.068
2347.19	550.063
2347.63	577.058
2348.06	552.054
2348.5	558.049
2348.94	591.044
2349.37	573.539
2349.81	615.534
2350.25	591.03
2350.69	552.025
2351.12	632.52
2351.56	547.015
2351.99	576.01
2352.43	577.006
2352.87	594.001
2353.31	569.496
2353.74	561.491
2354.18	555.986
2354.62	563.482
2355.05	604.477
2355.49	547.972
2355.92	586.967
2356.36	585.962
2356.8	557.958
2357.23	593.953
2357.67	581.414
2358.11	599.416
2358.54	569.284
2358.98	577.474
2359.41	578.295
2359.85	606.182
2360.29	589.923
2360.72	588.82
2361.16	598.889
2361.6	571.284
2362.03	598.334
2362.47	564.362
2362.9	588.52
2363.34	612.47
2363.77	587.25
2364.21	604.524
2364.65	616.962
2365.08	578.519
2365.52	592.564
2365.95	622.666
2366.39	598.315
2366.82	567.957
2367.26	595.576
2367.7	583.676
2368.13	565.672
2368.57	594.165
2369	591.824
2369.44	578.402
2369.87	597.114
2370.31	575.792
2370.74	570.558
2371.18	584.45
2371.61	566.307
2372.05	573.799
2372.48	591.465
2372.92	621.018
2373.36	583.997
2373.79	631.474
2374.22	597.313
2374.66	580.831
2375.09	608.933
2375.53	609.393
2375.96	597.253
2376.4	601.891
2376.83	608.1
2377.27	590.003
2377.7	603.906
2378.14	618.849
2378.57	580.596
2379.01	608.807
2379.44	611.08
2379.88	585.598
2380.31	588.317
2380.75	586.455
2381.18	599.437
2381.61	584.631
2382.05	592.613
2382.48	615.084
2382.92	607.059
2383.35	625.639
2383.79	582.431
2384.22	590.108
2384.66	601.458
2385.09	589.021
2385.52	621.952
2385.96	587.139
2386.39	598.458
2386.83	591.254
2387.26	612.665
2387.69	580.862
2388.13	579.89
2388.56	582.981
2388.99	641.018
2389.43	610.42
2389.86	587.335
2390.3	603.651
2390.73	583.818
2391.16	583.724
2391.6	620.774
2392.03	600.72
2392.46	638.991
2392.9	592.419
2393.33	586.517
2393.77	585.353
2394.2	610.281
2394.63	575.379
2395.07	582.685
2395.5	600.471
2395.93	609.436
2396.36	592.265
2396.8	612.179
2397.23	592.442
2397.67	607.332
2398.1	611.713
2398.53	611.788
2398.96	635.996
2399.4	615.655
2399.83	602.477
2400.26	605.462
2400.7	594.837
2401.13	598.169
2401.56	587.956
2402	620.143
2402.43	623.358
2402.86	605.356
2403.29	589.027
2403.47	580.889
2403.91	578.382
2404.34	620.375
2404.78	651.868
2405.22	635.361
2405.66	636.854
2406.1	585.346
2406.53	632.339
2406.97	648.332
2407.41	596.825
2407.85	642.318
2408.29	596.311
2408.72	603.803
2409.16	602.296
2409.6	652.289
2410.04	612.282
2410.48	630.775
2410.91	638.268
2411.35	584.26
2411.79	593.253
2412.23	621.746
2412.66	581.239
2413.1	587.232
2413.54	654.224
2413.98	595.717
2414.42	586.71
2414.85	595.703
2415.29	581.196
2415.73	620.689
2416.16	629.181
2416.6	610.174
2417.04	614.167
2417.48	588.16
2417.91	618.653
2418.35	614.146
2418.79	612.138
2419.23	605.131
2419.66	593.124
2420.1	614.617
2420.54	634.61
2420.97	632.603
2421.41	617.095
2421.85	628.088
2422.28	619.581
2422.72	586.074
2423.16	605.067
2423.59	647.06
2424.03	651.052
2424.47	602.045
2424.9	588.038
2425.34	599.031
2425.78	606.024
2426.21	655.516
2426.65	610.009
2427.09	628.502
2427.52	620.995
2427.96	656.488
2428.4	626.981
2428.83	611.974
2429.27	652.966
2429.71	595.959
2430.14	607.952
2430.58	637.945
2431.02	589.938
2431.45	602.93
2431.89	612.923
2432.32	598.916
2432.76	612.909
2433.2	639.402
2433.63	596.895
2434.07	629.387
2434.5	611.88
2434.94	655.373
2435.38	590.866
2435.81	624.859
2436.25	609.852
2436.68	616.844
2437.12	597.837
2437.55	636.33
2437.99	621.323
2438.43	619.816
2438.86	665.808
2439.3	628.801
2439.73	634.794
2440.17	606.787
2440.6	600.78
2441.04	643.773
2441.47	639.766
2441.91	627.758
2442.34	661.751
2442.78	606.244
2443.22	599.737
2443.65	609.23
2444.09	604.222
2444.52	637.715
2444.96	599.708
2445.39	664.701
2445.83	643.194
2446.26	606.687
2446.7	632.179
2447.13	616.172
2447.57	648.665
2448	620.658
2448.44	606.651
2448.87	598.644
2449.31	644.636
2449.74	641.629
2450.18	612.622
2450.61	610.115
2451.05	628.608
2451.48	631.6
2451.91	610.593
2452.35	634.086
2452.78	602.579
2453.22	630.072
2453.65	635.565
2454.09	629.057
2454.52	621.05
2454.96	617.043
2455.39	620.536
2455.82	607.529
2456.26	632.022
2456.69	605.514
2457.13	599.507
2457.56	652
2458	611.493
2458.43	649.486
2458.86	647.979
2459.3	620.471
2459.73	605.464
2460.17	614.457
2460.6	624.95
2461.03	687.443
2461.47	643.936
2461.9	618.428
2462.34	652.921
2462.77	651.914
2463.2	639.407
2463.64	611.4
2464.07	630.392
2464.51	624.885
2464.94	660.378
2465.37	654.371
2465.81	603.364
2466.24	665.857
2466.67	656.849
2467.11	614.342
2467.54	610.835
2467.97	655.328
2468.41	631.821
2468.84	614.314
2469.27	612.306
2469.71	641.799
2470.14	625.792
2470.57	633.285
2471.01	653.778
2471.44	658.271
2471.87	673.763
2472.31	619.256
2472.74	638.249
2473.17	650.242
2473.6	645.735
2474.04	618.228
2474.47	638.22
2474.9	660.713
2475.34	615.206
2475.77	608.199
2476.2	651.692
2476.64	621.185
2477.07	625.177
2477.5	650.17
2477.93	642.163
2478.37	651.656
2478.8	637.149
2479.23	668.141
2479.66	631.634
2480.1	629.127
2480.53	611.12
2480.96	675.613
2481.39	613.106
2481.83	626.098
2482.26	648.091
2482.69	662.584
2483.12	628.077
2483.55	613.07
2483.99	650.063
2484.42	649.555
2484.85	691.048
2485.28	625.541
2485.72	624.034
2486.15	660.027
2486.58	619.02
2487.01	656.012
2487.44	623.005
2487.88	679.498
2488.31	634.991
2488.74	654.984
2489.17	640.977
2489.6	655.969
2490.04	677.962
2490.47	636.955
2490.9	622.448
2491.33	629.441
2491.76	664.433
2492.19	659.926
2492.62	641.919
2493.05	663.412
2493.49	685.405
2493.92	647.898
2494.35	630.89
2494.78	670.383
2495.21	633.376
2495.64	647.869
2496.08	626.862
2496.51	638.855
2496.94	625.847
2497.37	669.84
2497.8	668.833
2498.23	617.826
2498.66	650.819
2499.09	631.812
2499.52	624.804
2499.96	626.797
2500.39	669.29
2500.82	638.283
2501.25	630.776
2501.68	651.268
2502.11	660.761
2502.54	669.254
2502.97	639.747
2503.4	619.74
2503.83	629.733
2504.26	653.725
2504.69	627.718
2505.13	626.711
2505.55	657.704
2505.98	698.697
2506.42	659.19
2506.85	668.182
2507.28	653.675
2507.71	665.168
2508.14	652.661
2508.57	644.654
2509	648.647
2509.43	682.139
2509.86	671.132
2510.29	632.125
2510.72	652.118
2511.15	656.611
2511.58	643.604
2512.01	663.096
2512.44	667.089
2512.87	661.082
2513.3	652.575
2513.73	687.068
2514.16	633.561
2514.59	683.553
2515.02	652.546
2515.45	660.039
2515.88	658.032
2516.31	651.525
2516.74	639.517
2517.17	681.51
2517.6	667.003
2518.03	634.496
2518.46	709.489
2518.89	648.482
2519.32	687.474
2519.74	679.967
2520.17	686.96
2520.6	650.453
2521.03	684.446
2521.46	687.939
2521.89	671.431
2522.32	639.924
2522.75	688.417
2523.18	683.41
2523.61	673.403
2524.04	693.896
2524.47	638.888
2524.9	647.381
2525.33	642.874
2525.76	648.867
2526.18	663.36
2526.61	684.353
2527.04	660.845
2527.47	644.338
2527.9	652.331
2528.33	641.324
2528.76	673.317
2529.19	678.31
2529.61	642.302
2530.04	635.295
2530.47	641.288
2530.9	660.281
2531.33	711.274
2531.76	677.266
2532.19	689.759
2532.61	692.252
2533.04	669.745
2533.47	665.238
2533.9	706.731
2534.33	653.223
2534.76	669.716
2535.18	687.209
2535.61	636.202
2536.04	654.195
2536.47	639.188
2536.9	662.18
2537.33	679.173
2537.75	686.183
2538.18	657.192
2538.61	678.702
2539.04	671.711
2539.47	639.221
2539.89	671.731
2540.32	692.74
2540.75	661.25
2541.18	669.759
2541.6	664.269
2542.03	674.778
2542.46	667.288
2542.89	672.797
2543.32	657.307
2543.74	685.816
2544.17	639.326
2544.6	641.335
2545.03	673.345
2545.45	654.855
2545.88	666.364
2546.31	654.374
2546.74	655.383
2547.16	674.893
2547.59	672.402
2548.02	657.412
2548.45	664.421
2548.87	643.431
2549.3	692.941
2549.73	656.45
2550.15	693.46
2550.58	681.469
2551.01	664.479
2551.44	650.988
2551.86	718.498
2552.29	671.507
2552.72	652.017
2553.14	660.026
2553.57	673.536
2554	656.046
2554.42	695.555
2554.85	670.565
2555.28	670.574
2555.7	670.084
2556.13	642.593
2556.56	658.603
2556.99	681.612
2557.41	670.622
2557.84	674.631
2558.27	683.641
2558.69	663.651
2559.12	732.66
2559.54	654.67
2559.97	659.679
2560.4	643.689
2560.82	695.698
2561.25	650.708
2561.68	671.717
2562.1	686.227
2562.53	695.236
2562.95	676.246
2563.38	708.256
2563.81	681.765
2564.23	686.275
2564.66	691.784
2565.08	704.294
2565.51	682.303
2565.94	654.813
2566.36	667.822
2566.79	693.832
2567.21	699.341
2567.64	719.351
2568.07	700.861
2568.49	722.87
2568.92	693.88
2569.34	696.389
2569.77	663.899
2570.19	666.908
2570.62	680.418
2571.05	655.427
2571.47	688.437
2571.9	690.947
2572.32	677.956
2572.75	667.966
2573.17	678.975
2573.6	693.485
2574.02	649.994
2574.45	658.004
2574.87	685.013
2575.3	683.023
2575.73	699.032
2576.15	708.042
2576.57	727.052
2577	668.561
2577.43	709.571
2577.85	667.08
2578.28	685.09
2578.7	685.099
2579.13	685.609
2579.55	677.618
2579.98	694.128
2580.4	653.137
2580.82	697.147
2581.25	710.157
2581.67	658.166
2582.1	691.176
2582.52	659.185
2582.95	668.695
2583.37	680.204
2583.8	657.214
2584.22	683.223
2584.65	676.733
2585.07	677.242
2585.49	698.252
2585.92	712.262
2586.34	664.271
2586.77	686.781
2587.19	670.79
2587.62	730.8
2588.04	708.809
2588.47	667.319
2588.89	691.328
2589.31	701.338
2589.74	682.847
2590.16	736.357
2590.59	678.367
2591.01	675.376
2591.43	675.386
2591.86	672.395
2592.28	697.405
2592.71	664.414
2593.13	674.924
2593.55	681.433
2593.98	660.443
2594.4	670.453
2594.83	692.962
2595.25	676.971
2595.67	707.481
2596.1	673.491
2596.52	670.5
2596.94	659.51
2597.37	683.519
2597.79	742.029
2598.21	673.538
2598.64	681.548
2599.06	690.557
2599.48	663.567
2599.91	712.577
2600.33	690.086
2600.75	709.096
2601.18	735.605
2601.6	712.615
2602.02	712.624
2602.45	687.634
2602.87	673.643
2603.29	702.153
2603.72	667.662
2604.14	673.172
2604.56	709.682
2604.98	666.691
2605.41	685.701
2605.83	716.71
2606.25	679.72
2606.68	686.729
2607.1	665.739
2607.52	699.748
2607.94	720.758
2608.37	688.768
2608.79	684.777
2609.21	688.287
2609.64	720.296
2610.06	697.806
2610.48	701.815
2610.9	667.825
2611.33	731.334
2611.75	711.344
2612.17	670.353
2612.59	673.863
2613.02	681.873
2613.44	720.882
2613.86	723.392
2614.28	718.901
2614.71	717.911
2615.13	706.42
2615.55	675.43
2615.97	715.939
2616.39	671.949
2616.81	728.958
2617.24	699.968
2617.66	721.978
2618.08	729.487
2618.5	752.497
2618.93	743.006
2619.35	717.016
2619.77	683.025
2620.19	691.035
2620.61	687.044
2621.03	700.054
2621.46	711.563
2621.88	682.573
2622.3	727.083
2622.72	747.092
2623.14	710.102
2623.56	693.111
2623.99	696.621
2624.41	693.63
2624.83	689.64
2625.25	679.149
2625.67	721.659
2626.09	687.668
2626.51	716.678
2626.94	692.188
2627.36	690.197
2627.78	683.207
2628.2	684.216
2628.62	693.226
2629.04	675.235
2629.46	693.245
2629.88	742.254
2630.3	693.264
2630.73	733.273
2631.15	683.283
2631.57	690.793
2631.99	707.802
2632.41	695.312
2632.83	746.821
2633.25	678.331
2633.67	682.34
2634.09	706.35
2634.51	705.359
2634.93	715.369
2635.35	680.378
2635.77	725.388
2636.19	682.398
2636.62	716.407
2637.04	709.417
2637.46	684.926
2637.88	705.436
2638.3	695.945
2638.72	682.455
2639.14	761.464
2639.56	699.474
2639.98	707.983
2640.4	687.493
2640.82	675.503
2641.24	722.512
2641.66	683.522
2642.08	698.531
2642.5	713.541
2642.92	732.55
2643.34	694.56
2643.76	690.569
2644.18	678.579
2644.6	731.589
2645.02	696.098
2645.44	761.108
2645.86	719.617
2646.28	719.627
2646.7	725.636
2647.12	714.646
2647.54	710.655
2647.96	699.165
2648.38	737.174
2648.8	714.184
2649.22	696.194
2649.64	692.203
2650.06	722.713
2650.48	717.722
2650.9	721.232
2651.31	750.241
2651.73	706.251
2652.15	710.26
2652.57	721.27
2652.99	695.779
2653.41	694.289
2653.83	719.299
2654.25	729.308
2654.67	702.818
2655.09	715.827
2655.51	695.337
2655.93	709.846
2656.35	720.356
2656.76	712.365
2657.18	716.875
2657.6	692.884
2658.02	684.894
2658.44	741.404
2658.86	735.913
2659.28	707.923
2659.7	738.932
2660.11	716.942
2660.53	698.951
2660.95	718.961
2661.37	707.97
2661.79	706.48
2662.21	706.989
2662.63	722.999
2663.04	736.509
2663.46	710.018
2663.88	690.528
2664.3	718.037
2664.72	704.047
2665.14	707.556
2665.56	696.066
2665.97	745.575
2666.39	738.085
2666.81	745.594
2667.23	712.604
2667.65	767.614
2668.07	720.123
2668.48	703.133
2668.9	723.642
2669.32	689.152
2669.74	689.161
2670.16	691.171
2670.57	711.18
2670.99	711.19
2671.41	733.7
2671.83	702.709
2672.24	698.219
2672.66	704.728
2673.08	751.238
2673.5	714.747
2673.92	721.257
2674.33	712.266
2674.75	687.276
2675.17	724.285
2675.59	742.795
2676	700.305
2676.42	762.314
2676.84	754.824
2677.26	704.333
2677.67	739.343
2678.09	705.352
2678.51	741.362
2678.93	724.871
2679.34	692.381
2679.76	746.391
2680.18	712.4
2680.59	731.409
2681.01	705.419
2681.43	764.429
2681.85	716.938
2682.26	735.448
2682.68	694.457
2683.1	690.467
2683.51	741.476
2683.93	725.986
2684.35	708.995
2684.76	698.505
2685.18	760.015
2685.6	741.524
2686.01	719.534
2686.43	752.543
2686.85	694.553
2687.26	726.062
2687.68	726.072
2688.1	742.081
2688.51	749.091
2688.93	752.6
2689.35	763.11
2689.76	716.62
2690.18	726.629
2690.6	724.639
2691.01	742.648
2691.43	710.658
2691.85	769.667
2692.26	700.677
2692.68	754.186
2693.09	702.696
2693.51	731.205
2693.93	748.715
2694.34	733.725
2694.76	730.734
2695.17	726.744
2695.59	737.753
2696.01	704.763
2696.42	716.772
2696.84	719.282
2697.26	719.791
2697.67	749.801
2698.09	706.81
2698.5	703.82
2698.92	707.83
2699.33	713.339
2699.75	747.849
2700.17	757.858
2700.58	752.368
2701	699.877
2701.41	706.887
2701.83	736.396
2702.24	700.406
2702.66	717.916
2703.07	717.925
2703.49	734.935
2703.91	756.944
2704.32	734.954
2704.74	739.963
2705.15	714.973
2705.57	743.982
2705.98	719.992
2706.4	752.001
2706.81	725.011
2707.23	707.021
2707.64	705.03
2708.06	709.04
2708.47	712.049
2708.89	747.559
2709.3	723.068
2709.72	709.078
2710.13	717.087
2710.55	740.597
2710.96	742.106
2711.38	715.116
2711.79	701.125
2712.21	719.135
2712.62	749.645
2713.04	721.154
2713.45	731.664
2713.86	716.673
2714.28	770.183
2714.69	728.192
2715.11	722.202
2715.52	709.211
2715.94	721.721
2716.35	704.231
2716.77	717.24
2717.18	747.25
2717.59	727.259
2718.01	730.769
2718.42	712.278
2718.84	701.288
2719.25	731.297
2719.67	700.307
2720.08	701.317
2720.49	750.826
2720.91	737.836
2721.32	742.345
2721.74	741.855
2722.15	731.864
2722.56	747.374
2722.98	703.383
2723.39	704.393
2723.8	741.902
2724.22	722.412
2724.63	765.921
2725.05	743.431
2725.46	759.441
2725.87	746.95
2726.29	705.46
2726.7	723.469
2727.11	740.979
2727.53	722.488
2727.94	714.998
2728.36	748.507
2728.77	711.517
2729.18	754.526
2729.6	768.036
2730.01	737.546
2730.42	743.555
2730.84	704.565
2731.25	764.074
2731.66	731.584
2732.08	745.593
2732.49	739.603
2732.9	739.112
2733.32	732.622
2733.73	759.131
2734.14	768.641
2734.55	752.651
2734.97	717.16
2735.38	706.67
2735.79	720.679
2736.21	709.689
2736.62	745.698
2737.03	709.708
2737.44	751.717
2737.86	750.727
2738.27	710.236
2738.68	751.746
2739.09	719.256
2739.51	722.765
2739.92	736.275
2740.33	720.784
2740.75	712.794
2741.16	724.803
2741.57	729.813
2741.98	738.322
2742.4	764.332
2742.81	743.342
2743.22	726.851
2743.63	741.861
2744.04	776.37
2744.46	756.38
2744.87	757.889
2745.28	751.399
2745.69	725.408
2746.11	731.918
2746.52	727.427
2746.93	721.937
2747.34	745.947
2747.75	742.956
2748.17	720.966
2748.58	732.975
2748.99	734.485
2749.4	731.994
2749.81	739.504
2750.23	736.513
2750.64	720.523
2751.05	766.532
2751.46	756.042
2751.87	741.027
2752.28	772.903
2752.7	713.767
2753.11	759.884
2753.52	711.695
2753.93	745.382
2754.34	729.409
2754.75	717.075
2755.16	743.913
2755.58	742.763
2755.99	737.554
2756.4	731.708
2756.81	739.634
2757.22	747.486
2757.63	737.531
2758.04	715.6
2758.45	787.508
2758.87	744.971
2759.28	716.86
2759.69	761.725
2760.1	738.83
2760.51	746.742
2760.92	750.408
2761.33	754.398
2761.74	751.092
2762.15	742.284
2762.56	757.265
2762.98	729.292
2763.39	729.227
2763.8	742.504
2764.21	756.746
2764.62	742.555
2765.03	752.103
2765.44	738.618
2765.85	747.102
2766.26	729.837
2766.67	749.264
2767.08	754.056
2767.49	726.397
2767.9	734.137
2768.31	744.509
2768.72	728.197
2769.14	728.13
2769.55	725.902
2769.95	749.941
2770.36	746.662
2770.78	734.774
2771.19	753.895
2771.6	763.732
2772.01	739.313
2772.42	737.596
2772.83	743.459
2773.24	732.865
2773.65	756.801
2774.06	731.567
2774.47	737.514
2774.88	726.125
2775.29	745.506
2775.7	739.75
2776.11	743.839
2776.52	770.933
2776.93	730.629
2777.34	744.524
2777.74	741.017
2778.15	740.196
2778.56	737.881
2778.97	737.667
2779.38	743.212
2779.79	738.93
2780.2	737.937
2780.61	743.815
2781.02	736.096
2781.43	728.811
2781.84	741.865
2782.25	744.266
2782.66	748.132
2783.07	742.37
2783.48	743.893
2783.89	743.454
2784.29	738.011
2784.7	730.082
2785.11	724.899
2785.52	759.19
2785.93	752.566
2786.34	727.464
2786.75	742.105
2787.16	758.468
2787.57	743.483
2787.98	762.875
2788.39	752.717
2788.79	741.012
2789.2	744.478
2789.61	752.983
2790.02	739.743
2790.43	757.895
2790.84	784.177
2791.25	760.21
2791.66	736.993
2792.06	741.187
2792.47	725.058
2792.8	736.601
2793.21	761.099
2793.62	719.098
2794.04	737.097
2794.45	730.595
2794.87	748.594
2795.28	746.093
2795.69	719.591
2796.11	723.59
2796.52	742.589
2796.93	758.087
2797.35	735.586
2797.76	754.584
2798.17	727.083
2798.59	754.082
2799	735.58
2799.42	760.079
2799.83	714.578
2800.24	746.076
2800.66	752.075
2801.07	708.574
2801.48	743.572
2801.9	766.571
2802.31	719.07
2802.72	746.068
2803.14	709.567
2803.55	759.566
2803.96	712.564
2804.38	768.563
2804.79	708.562
2805.2	721.06
2805.61	728.059
2806.03	759.057
2806.44	758.556
2806.85	718.055
2807.27	715.553
2807.68	733.552
2808.09	731.551
2808.5	735.049
2808.92	747.548
2809.33	765.047
2809.74	724.545
2810.16	718.544
2810.57	794.543
2810.98	789.541
2811.39	764.04
2811.81	722.539
2812.22	757.537
2812.63	720.536
2813.04	749.535
2813.46	776.533
2813.87	759.532
2814.28	711.531
2814.69	756.529
2815.11	713.528
2815.52	720.526
2815.93	754.025
2816.34	736.524
2816.75	770.522
2817.17	768.521
2817.58	750.52
2817.99	713.518
2818.4	731.517
2818.82	745.016
2819.23	734.514
2819.64	764.013
2820.05	739.012
2820.46	730.51
2820.87	719.009
2821.29	753.008
2821.7	754.506
2822.11	730.505
2822.52	748.503
2822.93	737.502
2823.35	747.001
2823.76	756.999
2824.17	752.498
2824.58	765.997
2824.99	739.995
2825.4	734.994
2825.82	759.493
2826.23	766.491
2826.64	725.99
2827.05	743.989
2827.46	736.487
2827.87	752.986
2828.28	723.985
2828.7	736.483
2829.11	727.982
2829.52	722.481
2829.93	737.979
2830.34	720.978
2830.75	727.476
2831.16	725.975
2831.57	733.474
2831.98	737.972
2832.4	758.471
2832.81	758.97
2833.22	733.968
2833.63	728.467
2834.04	744.466
2834.45	730.964
2834.86	758.963
2835.27	724.462
2835.68	738.46
2836.09	723.959
2836.5	776.458
2836.92	722.956
2837.33	731.455
2837.74	753.453
2838.15	733.952
2838.56	724.451
2838.97	749.949
2839.38	759.948
2839.79	713.447
2840.2	736.445
2840.61	750.444
2841.02	746.443
2841.43	730.941
2841.84	744.94
2842.25	746.439
2842.66	738.437
2843.07	723.436
2843.48	764.435
2843.89	747.933
2844.3	737.932
2844.71	777.431
2845.12	751.929
2845.53	742.428
2845.94	737.427
2846.35	788.425
2846.76	727.424
2847.17	732.422
2847.58	738.421
2847.99	768.92
2848.4	785.418
2848.81	753.417
2849.22	715.416
2849.63	777.914
2850.04	741.913
2850.45	772.912
2850.86	779.41
2851.27	742.909
2851.68	716.408
2852.09	773.406
2852.5	749.405
2852.91	727.404
2853.32	768.902
2853.73	754.401
2854.14	711.4
2854.55	716.398
2854.95	768.397
2855.37	770.396
2855.77	771.394
2856.18	716.393
2856.59	738.391
2857	776.39
2857.41	731.389
2857.82	723.387
2858.23	758.886
2858.64	720.385
2859.05	725.383
2859.46	748.382
2859.87	720.381
2860.27	756.879
2860.68	730.378
2861.09	735.377
2861.5	723.875
2861.91	723.374
2862.32	748.373
2862.73	715.371
2863.14	774.37
2863.54	774.869
2863.95	719.367
2864.36	735.366
2864.77	736.865
2865.18	758.363
2865.59	715.862
2866	746.86
2866.4	734.359
2866.81	743.858
2867.22	739.356
2867.63	748.355
2868.04	750.354
2868.45	749.352
2868.85	749.351
2869.26	735.35
2869.67	736.348
2870.08	734.347
2870.49	714.346
2870.9	750.344
2871.3	719.343
2871.71	764.841
2872.12	759.84
2872.53	737.339
2872.94	716.837
2873.34	754.336
2873.75	749.335
2874.16	791.333
2874.57	734.332
2874.97	769.831
2875.38	740.829
2875.79	724.328
2876.2	730.327
2876.61	730.325
2877.01	741.824
2877.42	759.323
2877.83	732.821
2878.24	730.32
2878.65	761.319
2879.05	729.317
2879.46	765.816
2879.87	724.314
2880.27	782.313
2880.68	732.812
2881.09	739.31
2881.5	761.309
2881.9	770.308
2882.31	738.806
2882.72	718.805
2883.13	734.304
2883.53	713.302
2883.94	752.301
2884.35	746.3
2884.75	733.298
2885.16	731.797
2885.57	744.796
2885.98	774.294
2886.38	751.793
2886.79	754.792
2887.2	739.79
2887.6	741.789
2888.01	805.287
2888.42	732.286
2888.82	733.285
2889.23	799.283
2889.64	718.282
2890.04	732.281
2890.45	734.779
2890.86	775.278
2891.26	743.277
2891.67	730.275
2892.08	749.274
2892.48	767.773
2892.89	724.271
2893.3	739.27
2893.7	739.269
2894.11	768.267
2894.51	736.266
2894.92	757.265
2895.33	729.763
2895.73	762.762
2896.14	752.26
2896.55	759.259
2896.95	745.258
2897.36	778.756
2897.77	729.755
2898.17	793.254
2898.58	729.252
2898.98	735.251
2899.39	728.75
2899.8	738.248
2900.2	718.247
2900.61	740.746
2901.01	761.244
2901.42	765.743
2901.82	734.742
2902.23	715.24
2902.64	743.739
2903.04	732.238
2903.45	724.736
2903.85	739.235
2904.26	764.234
2904.66	787.732
2905.07	765.231
2905.48	724.229
2905.88	765.728
2906.29	749.727
2906.69	760.725
2907.1	715.224
2907.5	751.223
2907.91	767.221
2908.31	759.22
2908.72	746.219
2909.12	735.717
2909.53	720.716
2909.93	722.715
2910.34	752.213
2910.75	726.712
2911.15	723.711
2911.55	751.709
2911.96	786.708
2912.37	743.206
2912.77	738.205
2913.17	741.704
2913.58	727.202
2913.99	721.201
2914.39	741.2
2914.79	717.198
2915.2	755.197
2915.6	766.196
2916.01	757.194
2916.41	750.193
2916.82	783.192
2917.22	747.19
2917.63	786.189
2918.03	734.188
2918.44	747.186
2918.84	728.685
2919.25	745.184
2919.65	771.182
2920.06	768.181
2920.46	735.68
2920.86	745.178
2921.27	742.677
2921.67	727.175
2922.08	731.174
2922.48	726.173
2922.89	753.671
2923.29	728.17
2923.69	727.169
2924.1	710.167
2924.5	714.166
2924.91	748.665
2925.31	731.163
2925.71	743.662
2926.12	750.161
2926.52	716.159
2926.93	737.658
2927.33	750.657
2927.73	739.155
2928.14	727.154
2928.54	751.152
2928.94	753.651
2929.35	757.15
2929.75	709.148
2930.16	712.147
2930.56	743.146
2930.96	741.644
2931.37	744.143
2931.77	732.642
2932.17	729.14
2932.58	747.639
2932.98	762.638
2933.38	733.636
2933.79	712.135
2934.19	787.134
2934.59	781.132
2935	738.131
2935.4	770.63
2935.8	769.128
2936.21	731.127
2936.61	727.626
2937.01	713.124
2937.42	728.123
2937.82	721.121
2938.22	722.62
2938.63	711.119
2939.03	725.117
2939.43	709.116
2939.84	708.115
2940.24	741.113
2940.64	720.612
2941.04	725.111
2941.45	738.109
2941.85	747.608
2942.25	761.607
2942.65	766.605
2943.06	728.104
2943.46	730.603
2943.86	711.101
2944.27	719.1
2944.67	763.599
2945.07	730.597
2945.47	722.096
2945.88	716.094
2946.28	728.593
2946.68	760.092
2947.08	757.09
2947.49	714.089
2947.89	723.088
2948.29	742.086
2948.69	709.585
2949.09	738.584
2949.5	713.082
2949.9	707.081
2950.3	751.58
2950.7	733.578
2951.11	708.077
2951.51	726.076
2951.91	709.074
2952.31	718.073
2952.71	709.072
2953.11	731.57
2953.52	713.069
2953.92	762.068
2954.32	712.066
2954.72	739.065
2955.12	766.063
2955.53	731.562
2955.93	711.061
2956.33	752.059
2956.73	732.058
2957.13	765.057
2957.54	747.555
2957.94	733.054
2958.34	783.053
2958.74	756.051
2959.14	774.05
2959.54	738.049
2959.94	729.547
2960.35	714.046
2960.75	703.045
2961.15	721.043
2961.55	714.042
2961.95	705.04
2962.35	728.039
2962.75	751.038
2963.15	757.036
2963.56	735.035
2963.96	715.534
2964.36	746.532
2964.76	740.031
2965.16	719.53
2965.56	703.028
2965.96	745.027
2966.36	716.026
2966.76	729.524
2967.17	711.023
2967.57	745.022
2967.97	734.02
2968.37	743.019
2968.77	728.017
2969.17	704.516
2969.57	756.515
2969.97	739.513
2970.37	711.012
2970.77	751.511
2971.17	740.009
2971.57	724.008
2971.97	742.007
2972.37	719.005
2972.77	714.004
2973.18	729.003
2973.57	768.001
2973.97	770.5
2974.37	775.999
2974.78	733.997
2975.18	719.996
2975.58	766.995
2975.98	717.993
2976.38	773.492
2976.78	771.991
2977.18	732.489
2977.58	707.988
2977.98	723.486
2978.38	745.985
2978.78	740.984
2979.18	713.482
2979.58	738.481
2979.98	720.98
2980.38	723.978
2980.78	725.477
2981.18	704.976
2981.58	731.974
2981.98	741.473
2982.38	746.972
2982.77	778.97
2983.18	712.969
2983.58	709.468
2983.97	733.966
2984.37	698.965
2984.77	741.964
2985.17	722.962
2985.57	705.461
2985.97	747.959
2986.37	729.958
2986.77	709.957
2987.17	716.955
2987.57	727.954
2987.97	768.453
2988.37	757.951
2988.77	725.95
2989.17	700.449
2989.57	712.947
2989.97	770.946
2990.36	744.945
2990.76	724.943
2991.16	758.442
2991.56	738.441
2991.96	757.439
2992.36	747.438
2992.76	764.937
2993.16	730.435
2993.56	746.934
2993.95	766.432
2994.35	736.431
2994.75	724.43
2995.15	747.928
2995.55	728.427
2995.95	739.426
2996.35	725.424
2996.75	742.923
2997.15	735.922
2997.54	738.92
2997.94	780.919
2998.34	722.418
2998.74	744.416
2999.14	695.915
2999.54	706.914
2999.93	725.912
